6.410000	5.376057e-06	6.230230e-05	1.091789e-05	2.660432e-05	
6.411000	5.283394e-06	6.377008e-05	1.089869e-05	2.682210e-05	
6.412000	5.191151e-06	6.518521e-05	1.088044e-05	2.703330e-05	
6.413000	5.099480e-06	6.654423e-05	1.086327e-05	2.723747e-05	
6.414001	5.008536e-06	6.784366e-05	1.084731e-05	2.743417e-05	
6.415001	4.918469e-06	6.908002e-05	1.083268e-05	2.762297e-05	
6.416001	4.829434e-06	7.024987e-05	1.081951e-05	2.780342e-05	
6.417001	4.741582e-06	7.134971e-05	1.080794e-05	2.797508e-05	
6.418001	4.655066e-06	7.237608e-05	1.079809e-05	2.813753e-05	
6.419001	4.570040e-06	7.332551e-05	1.079009e-05	2.829031e-05	
6.420001	4.486654e-06	7.419454e-05	1.078407e-05	2.843299e-05	
6.421001	4.405063e-06	7.497968e-05	1.078015e-05	2.856513e-05	
6.422002	4.325419e-06	7.567747e-05	1.077848e-05	2.868630e-05	
6.423002	4.247874e-06	7.628444e-05	1.077917e-05	2.879605e-05	
6.424002	4.172581e-06	7.679712e-05	1.078236e-05	2.889394e-05	
6.425002	4.099690e-06	7.721216e-05	1.078817e-05	2.897954e-05	
6.426002	4.029282e-06	7.752930e-05	1.079659e-05	2.905273e-05	
6.427002	3.961366e-06	7.775148e-05	1.080751e-05	2.911367e-05	
6.428002	3.895948e-06	7.788179e-05	1.082078e-05	2.916253e-05	
6.429002	3.833034e-06	7.792330e-05	1.083627e-05	2.919949e-05	
6.430003	3.772631e-06	7.787911e-05	1.085386e-05	2.922474e-05	
6.431003	3.714743e-06	7.775231e-05	1.087339e-05	2.923846e-05	
6.432003	3.659378e-06	7.754597e-05	1.089475e-05	2.924082e-05	
6.433003	3.606541e-06	7.726320e-05	1.091779e-05	2.923200e-05	
6.434003	3.556238e-06	7.690706e-05	1.094238e-05	2.921219e-05	
6.435003	3.508475e-06	7.648065e-05	1.096839e-05	2.918156e-05	
6.436003	3.463258e-06	7.598706e-05	1.099568e-05	2.914030e-05	
6.437004	3.420594e-06	7.542936e-05	1.102412e-05	2.908858e-05	
6.438004	3.380487e-06	7.481066e-05	1.105357e-05	2.902658e-05	
6.439004	3.342945e-06	7.413402e-05	1.108390e-05	2.895449e-05	
6.440004	3.307972e-06	7.340255e-05	1.111498e-05	2.887247e-05	
6.441004	3.275576e-06	7.261933e-05	1.114666e-05	2.878072e-05	
6.442004	3.245762e-06	7.178743e-05	1.117882e-05	2.867941e-05	
6.443004	3.218536e-06	7.090996e-05	1.121133e-05	2.856873e-05	
6.444004	3.193904e-06	6.998999e-05	1.124404e-05	2.844884e-05	
6.445005	3.171872e-06	6.903061e-05	1.127683e-05	2.831993e-05	
6.446005	3.152446e-06	6.803490e-05	1.130955e-05	2.818219e-05	
6.447005	3.135633e-06	6.700597e-05	1.134208e-05	2.803578e-05	
6.448005	3.121437e-06	6.594688e-05	1.137428e-05	2.788090e-05	
6.449005	3.109865e-06	6.486073e-05	1.140602e-05	2.771771e-05	
6.450005	3.100924e-06	6.375060e-05	1.143716e-05	2.754641e-05	
6.451005	3.094618e-06	6.261958e-05	1.146757e-05	2.736716e-05	
6.452005	3.090955e-06	6.147075e-05	1.149711e-05	2.718015e-05	
6.453006	3.089939e-06	6.030721e-05	1.152565e-05	2.698557e-05	
6.454006	3.091578e-06	5.913204e-05	1.155305e-05	2.678357e-05	
6.455006	3.095877e-06	5.794831e-05	1.157919e-05	2.657436e-05	
6.456006	3.102842e-06	5.675913e-05	1.160392e-05	2.635811e-05	
6.457006	3.112478e-06	5.556758e-05	1.162711e-05	2.613499e-05	
6.458006	3.124793e-06	5.437674e-05	1.164863e-05	2.590519e-05	
6.459006	3.139792e-06	5.318969e-05	1.166835e-05	2.566888e-05	
6.460006	3.157481e-06	5.200954e-05	1.168612e-05	2.542626e-05	
6.461007	3.177866e-06	5.083935e-05	1.170182e-05	2.517748e-05	
6.462007	3.200953e-06	4.968222e-05	1.171530e-05	2.492275e-05	
6.463007	3.226748e-06	4.854124e-05	1.172645e-05	2.466223e-05	
6.464007	3.255256e-06	4.741949e-05	1.173512e-05	2.439610e-05	
6.465007	3.286485e-06	4.632005e-05	1.174117e-05	2.412455e-05	
6.466007	3.320440e-06	4.524602e-05	1.174448e-05	2.384776e-05	
6.467007	3.357127e-06	4.420048e-05	1.174490e-05	2.356590e-05	
6.468008	3.396552e-06	4.318651e-05	1.174231e-05	2.327915e-05	
6.469008	3.438721e-06	4.220721e-05	1.173658e-05	2.298770e-05	
6.470008	3.483640e-06	4.126565e-05	1.172755e-05	2.269172e-05	
6.471008	3.531314e-06	4.036493e-05	1.171511e-05	2.239139e-05	
6.472008	3.581751e-06	3.950812e-05	1.169912e-05	2.208690e-05	
6.473008	3.634956e-06	3.869833e-05	1.167944e-05	2.177842e-05	
6.474008	3.690935e-06	3.793863e-05	1.165594e-05	2.146613e-05	
6.475008	3.749690e-06	3.723201e-05	1.162849e-05	2.115022e-05	
6.476009	3.811154e-06	3.657921e-05	1.159709e-05	2.083105e-05	
6.477009	3.875184e-06	3.597863e-05	1.156189e-05	2.050913e-05	
6.478009	3.941633e-06	3.542859e-05	1.152303e-05	2.018499e-05	
6.479009	4.010358e-06	3.492740e-05	1.148066e-05	1.985918e-05	
6.480009	4.081212e-06	3.447336e-05	1.143492e-05	1.953221e-05	
6.481009	4.154050e-06	3.406480e-05	1.138597e-05	1.920462e-05	
6.482009	4.228725e-06	3.370003e-05	1.133394e-05	1.887695e-05	
6.483009	4.305094e-06	3.337734e-05	1.127899e-05	1.854972e-05	
6.484010	4.383009e-06	3.309506e-05	1.122125e-05	1.822346e-05	
6.485010	4.462326e-06	3.285150e-05	1.116089e-05	1.789871e-05	
6.486010	4.542900e-06	3.264497e-05	1.109804e-05	1.757599e-05	
6.487010	4.624584e-06	3.247377e-05	1.103285e-05	1.725584e-05	
6.488010	4.707232e-06	3.233623e-05	1.096546e-05	1.693879e-05	
6.489010	4.790701e-06	3.223065e-05	1.089603e-05	1.662537e-05	
6.490010	4.874843e-06	3.215534e-05	1.082470e-05	1.631611e-05	
6.491011	4.959514e-06	3.210861e-05	1.075162e-05	1.601154e-05	
6.492011	5.044567e-06	3.208878e-05	1.067693e-05	1.571219e-05	
6.493011	5.129858e-06	3.209416e-05	1.060077e-05	1.541860e-05	
6.494011	5.215241e-06	3.212305e-05	1.052331e-05	1.513129e-05	
6.495011	5.300570e-06	3.217377e-05	1.044468e-05	1.485080e-05	
6.496011	5.385700e-06	3.224463e-05	1.036502e-05	1.457765e-05	
6.497011	5.470485e-06	3.233395e-05	1.028449e-05	1.431239e-05	
6.498011	5.554780e-06	3.244003e-05	1.020324e-05	1.405553e-05	
6.499012	5.638440e-06	3.256118e-05	1.012140e-05	1.380761e-05	
6.500012	5.721317e-06	3.269571e-05	1.003913e-05	1.356917e-05	
6.501012	5.803268e-06	3.284195e-05	9.956568e-06	1.334073e-05	
6.502012	5.884147e-06	3.299819e-05	9.873866e-06	1.312282e-05	
6.503012	5.963808e-06	3.316275e-05	9.791169e-06	1.291598e-05	
6.504012	6.042105e-06	3.333394e-05	9.708624e-06	1.272074e-05	
6.505012	6.118893e-06	3.351007e-05	9.626376e-06	1.253762e-05	
6.506012	6.194027e-06	3.368945e-05	9.544573e-06	1.236716e-05	
6.507013	6.267361e-06	3.387040e-05	9.463360e-06	1.220989e-05	
6.508013	6.338749e-06	3.405123e-05	9.382885e-06	1.206634e-05	
6.509013	6.408046e-06	3.423024e-05	9.303294e-06	1.193704e-05	
6.510013	6.475107e-06	3.440575e-05	9.224734e-06	1.182253e-05	
6.511013	6.539785e-06	3.457606e-05	9.147351e-06	1.172333e-05	
6.512013	6.601936e-06	3.473950e-05	9.071291e-06	1.163997e-05	
6.513013	6.661414e-06	3.489437e-05	8.996701e-06	1.157300e-05	
6.514014	6.718073e-06	3.503898e-05	8.923728e-06	1.152293e-05	
6.515014	6.771767e-06	3.517165e-05	8.852518e-06	1.149029e-05	
6.516014	6.822352e-06	3.529068e-05	8.783218e-06	1.147563e-05	
6.517014	6.869682e-06	3.539439e-05	8.715974e-06	1.147947e-05	
6.518014	6.913611e-06	3.548109e-05	8.650933e-06	1.150234e-05	
6.519014	6.953993e-06	3.554908e-05	8.588241e-06	1.154478e-05	
6.520014	6.990684e-06	3.559669e-05	8.528045e-06	1.160731e-05	
6.521014	7.023537e-06	3.562222e-05	8.470491e-06	1.169046e-05	
6.522015	7.052407e-06	3.562398e-05	8.415726e-06	1.179477e-05	
6.523015	7.077148e-06	3.560028e-05	8.363896e-06	1.192077e-05	
6.524015	7.097616e-06	3.554944e-05	8.315149e-06	1.206899e-05	
6.525015	7.113672e-06	3.546983e-05	8.269624e-06	1.223992e-05	
6.526015	7.125357e-06	3.536140e-05	8.227351e-06	1.243335e-05	
6.527015	7.132892e-06	3.522563e-05	8.188239e-06	1.264833e-05	
6.528015	7.136505e-06	3.506409e-05	8.152198e-06	1.288387e-05	
6.529015	7.136423e-06	3.487836e-05	8.119132e-06	1.313899e-05	
6.530016	7.132877e-06	3.466999e-05	8.088951e-06	1.341272e-05	
6.531016	7.126093e-06	3.444055e-05	8.061560e-06	1.370406e-05	
6.532016	7.116299e-06	3.419161e-05	8.036866e-06	1.401205e-05	
6.533016	7.103725e-06	3.392473e-05	8.014777e-06	1.433569e-05	
6.534016	7.088599e-06	3.364148e-05	7.995199e-06	1.467402e-05	
6.535016	7.071147e-06	3.334342e-05	7.978040e-06	1.502603e-05	
6.536016	7.051600e-06	3.303213e-05	7.963207e-06	1.539076e-05	
6.537016	7.030185e-06	3.270916e-05	7.950606e-06	1.576723e-05	
6.538017	7.007130e-06	3.237608e-05	7.940145e-06	1.615445e-05	
6.539017	6.982664e-06	3.203447e-05	7.931731e-06	1.655143e-05	
6.540017	6.957014e-06	3.168588e-05	7.925270e-06	1.695721e-05	
6.541017	6.930410e-06	3.133187e-05	7.920670e-06	1.737080e-05	
6.542017	6.903079e-06	3.097403e-05	7.917838e-06	1.779122e-05	
6.543017	6.875249e-06	3.061390e-05	7.916680e-06	1.821748e-05	
6.544017	6.847149e-06	3.025307e-05	7.917104e-06	1.864860e-05	
6.545018	6.819007e-06	2.989309e-05	7.919017e-06	1.908361e-05	
6.546018	6.791052e-06	2.953553e-05	7.922325e-06	1.952153e-05	
6.547018	6.763511e-06	2.918195e-05	7.926936e-06	1.996136e-05	
6.548018	6.736613e-06	2.883393e-05	7.932757e-06	2.040214e-05	
6.549018	6.710586e-06	2.849302e-05	7.939695e-06	2.084287e-05	
6.550018	6.685658e-06	2.816080e-05	7.947656e-06	2.128259e-05	
6.551018	6.662057e-06	2.783882e-05	7.956549e-06	2.172030e-05	
6.552018	6.640012e-06	2.752866e-05	7.966279e-06	2.215502e-05	
6.553019	6.619751e-06	2.723189e-05	7.976754e-06	2.258579e-05	
6.554019	6.601503e-06	2.695006e-05	7.987880e-06	2.301160e-05	
6.555019	6.585495e-06	2.668474e-05	7.999566e-06	2.343149e-05	
6.556019	6.571955e-06	2.643750e-05	8.011717e-06	2.384446e-05	
6.557019	6.561113e-06	2.620991e-05	8.024242e-06	2.424955e-05	
6.558019	6.553195e-06	2.600353e-05	8.037046e-06	2.464577e-05	
6.559019	6.548431e-06	2.581992e-05	8.050037e-06	2.503213e-05	
6.560019	6.547049e-06	2.566066e-05	8.063122e-06	2.540766e-05	
6.561020	6.549277e-06	2.552731e-05	8.076208e-06	2.577137e-05	
6.562020	6.555343e-06	2.542143e-05	8.089202e-06	2.612229e-05	
6.563020	6.565475e-06	2.534459e-05	8.102011e-06	2.645943e-05	
6.564020	6.579902e-06	2.529835e-05	8.114542e-06	2.678182e-05	
6.565020	6.598851e-06	2.528429e-05	8.126701e-06	2.708846e-05	
6.566020	6.622552e-06	2.530397e-05	8.138397e-06	2.737838e-05	
6.567020	6.651232e-06	2.535895e-05	8.149536e-06	2.765060e-05	
6.568021	6.685120e-06	2.545080e-05	8.160025e-06	2.790414e-05	
6.569021	6.724444e-06	2.558109e-05	8.169770e-06	2.813801e-05	
6.570021	6.769432e-06	2.575138e-05	8.178680e-06	2.835124e-05	
6.571021	6.820312e-06	2.596324e-05	8.186661e-06	2.854284e-05	
6.572021	6.877312e-06	2.621823e-05	8.193620e-06	2.871183e-05	
6.573021	6.940662e-06	2.651791e-05	8.199464e-06	2.885723e-05	
6.574021	7.010588e-06	2.686387e-05	8.204100e-06	2.897807e-05	
6.575021	7.087308e-06	2.725757e-05	8.207439e-06	2.907339e-05	
6.576022	7.170767e-06	2.769864e-05	8.209461e-06	2.914312e-05	
6.577022	7.260647e-06	2.818486e-05	8.210217e-06	2.918807e-05	
6.578022	7.356615e-06	2.871394e-05	8.209764e-06	2.920904e-05	
6.579022	7.458341e-06	2.928358e-05	8.208153e-06	2.920686e-05	
6.580022	7.565495e-06	2.989149e-05	8.205440e-06	2.918236e-05	
6.581022	7.677744e-06	3.053537e-05	8.201680e-06	2.913636e-05	
6.582022	7.794759e-06	3.121292e-05	8.196926e-06	2.906969e-05	
6.583022	7.916208e-06	3.192186e-05	8.191232e-06	2.898317e-05	
6.584023	8.041760e-06	3.265989e-05	8.184654e-06	2.887762e-05	
6.585023	8.171085e-06	3.342471e-05	8.177245e-06	2.875388e-05	
6.586023	8.303851e-06	3.421404e-05	8.169060e-06	2.861276e-05	
6.587023	8.439727e-06	3.502556e-05	8.160152e-06	2.845508e-05	
6.588023	8.578383e-06	3.585700e-05	8.150577e-06	2.828168e-05	
6.589023	8.719488e-06	3.670605e-05	8.140389e-06	2.809337e-05	
6.590023	8.862710e-06	3.757042e-05	8.129641e-06	2.789099e-05	
6.591024	9.007719e-06	3.844782e-05	8.118389e-06	2.767535e-05	
6.592024	9.154184e-06	3.933595e-05	8.106686e-06	2.744728e-05	
6.593024	9.301774e-06	4.023251e-05	8.094586e-06	2.720761e-05	
6.594024	9.450157e-06	4.113522e-05	8.082145e-06	2.695715e-05	
6.595024	9.599003e-06	4.204178e-05	8.069417e-06	2.669674e-05	
6.596024	9.747982e-06	4.294989e-05	8.056455e-06	2.642719e-05	
6.597024	9.896761e-06	4.385725e-05	8.043314e-06	2.614934e-05	
6.598024	1.004501e-05	4.476158e-05	8.030048e-06	2.586400e-05	
6.599025	1.019240e-05	4.566058e-05	8.016713e-06	2.557201e-05	
6.600025	1.033860e-05	4.655196e-05	8.003361e-06	2.527417e-05	
6.601025	1.048327e-05	4.743341e-05	7.990047e-06	2.497133e-05	
6.602025	1.062609e-05	4.830265e-05	7.976826e-06	2.466430e-05	
6.603025	1.076673e-05	4.915738e-05	7.963752e-06	2.435391e-05	
6.604025	1.090485e-05	4.999530e-05	7.950879e-06	2.404098e-05	
6.605025	1.104012e-05	5.081412e-05	7.938261e-06	2.372634e-05	
6.606025	1.117222e-05	5.161156e-05	7.925953e-06	2.341081e-05	
6.607026	1.130080e-05	5.238530e-05	7.914010e-06	2.309521e-05	
6.608026	1.142555e-05	5.313306e-05	7.902485e-06	2.278037e-05	
6.609026	1.154613e-05	5.385254e-05	7.891432e-06	2.246712e-05	
6.610026	1.166221e-05	5.454145e-05	7.880907e-06	2.215628e-05	
6.611026	1.177345e-05	5.519750e-05	7.870963e-06	2.184866e-05	
6.612026	1.187953e-05	5.581838e-05	7.861654e-06	2.154511e-05	
6.613026	1.198012e-05	5.640181e-05	7.853036e-06	2.124644e-05	
6.614026	1.207488e-05	5.694549e-05	7.845162e-06	2.095347e-05	
6.615027	1.216349e-05	5.744712e-05	7.838086e-06	2.066703e-05	
6.616027	1.224561e-05	5.790441e-05	7.831863e-06	2.038795e-05	
6.617027	1.232091e-05	5.831506e-05	7.826547e-06	2.011705e-05	
6.618027	1.238906e-05	5.867679e-05	7.822193e-06	1.985515e-05	
6.619027	1.244974e-05	5.898730e-05	7.818855e-06	1.960308e-05	
6.620027	1.250260e-05	5.924428e-05	7.816587e-06	1.936166e-05	
6.621027	1.254732e-05	5.944545e-05	7.815443e-06	1.913171e-05	
6.622028	1.258357e-05	5.958852e-05	7.815478e-06	1.891407e-05	
6.623028	1.261101e-05	5.967118e-05	7.816746e-06	1.870955e-05	
6.624028	1.262933e-05	5.969114e-05	7.819301e-06	1.851899e-05	
6.625028	1.263819e-05	5.964621e-05	7.823197e-06	1.834316e-05	
6.626028	1.263764e-05	5.953629e-05	7.828459e-06	1.818226e-05	
6.627028	1.262808e-05	5.936330e-05	7.835087e-06	1.803587e-05	
6.628028	1.260990e-05	5.912928e-05	7.843080e-06	1.790353e-05	
6.629028	1.258352e-05	5.883622e-05	7.852436e-06	1.778481e-05	
6.630029	1.254932e-05	5.848616e-05	7.863154e-06	1.767926e-05	
6.631029	1.250772e-05	5.808111e-05	7.875233e-06	1.758644e-05	
6.632029	1.245912e-05	5.762308e-05	7.888671e-06	1.750589e-05	
6.633029	1.240392e-05	5.711410e-05	7.903467e-06	1.743719e-05	
6.634029	1.234253e-05	5.655618e-05	7.919619e-06	1.737987e-05	
6.635029	1.227534e-05	5.595134e-05	7.937127e-06	1.733350e-05	
6.636029	1.220277e-05	5.530159e-05	7.955988e-06	1.729764e-05	
6.637029	1.212521e-05	5.460896e-05	7.976202e-06	1.727183e-05	
6.638030	1.204306e-05	5.387546e-05	7.997767e-06	1.725564e-05	
6.639030	1.195674e-05	5.310311e-05	8.020682e-06	1.724861e-05	
6.640030	1.186664e-05	5.229392e-05	8.044945e-06	1.725031e-05	
6.641030	1.177317e-05	5.144992e-05	8.070555e-06	1.726029e-05	
6.642030	1.167673e-05	5.057311e-05	8.097510e-06	1.727811e-05	
6.643030	1.157772e-05	4.966553e-05	8.125810e-06	1.730331e-05	
6.644030	1.147654e-05	4.872918e-05	8.155453e-06	1.733547e-05	
6.645031	1.137361e-05	4.776609e-05	8.186437e-06	1.737412e-05	
6.646031	1.126932e-05	4.677826e-05	8.218761e-06	1.741883e-05	
6.647031	1.116407e-05	4.576772e-05	8.252424e-06	1.746915e-05	
6.648031	1.105828e-05	4.473649e-05	8.287425e-06	1.752465e-05	
6.649031	1.095233e-05	4.368658e-05	8.323762e-06	1.758486e-05	
6.650031	1.084664e-05	4.262001e-05	8.361433e-06	1.764936e-05	
6.651031	1.074161e-05	4.153880e-05	8.400438e-06	1.771768e-05	
6.652031	1.063765e-05	4.044497e-05	8.440774e-06	1.778940e-05	
6.653032	1.053514e-05	3.934052e-05	8.482442e-06	1.786407e-05	
6.654032	1.043450e-05	3.822749e-05	8.525438e-06	1.794123e-05	
6.655032	1.033614e-05	3.710788e-05	8.569762e-06	1.802045e-05	
6.656032	1.024045e-05	3.598372e-05	8.615413e-06	1.810128e-05	
6.657032	1.014783e-05	3.485702e-05	8.662389e-06	1.818328e-05	
6.658032	1.005870e-05	3.372980e-05	8.710689e-06	1.826600e-05	
6.659032	9.973450e-06	3.260407e-05	8.760312e-06	1.834900e-05	
6.660032	9.892486e-06	3.148186e-05	8.811255e-06	1.843183e-05	
6.661033	9.816213e-06	3.036518e-05	8.863518e-06	1.851405e-05	
6.662033	9.745032e-06	2.925605e-05	8.917099e-06	1.859522e-05	
6.663033	9.679348e-06	2.815649e-05	8.971998e-06	1.867488e-05	
6.664033	9.619563e-06	2.706851e-05	9.028212e-06	1.875260e-05	
6.665033	9.566080e-06	2.599414e-05	9.085740e-06	1.882793e-05	
6.666033	9.519303e-06	2.493538e-05	9.144581e-06	1.890043e-05	
6.667033	9.479635e-06	2.389426e-05	9.204733e-06	1.896964e-05	
6.668034	9.447479e-06	2.287279e-05	9.266196e-06	1.903514e-05	
6.669034	9.423238e-06	2.187299e-05	9.328968e-06	1.909646e-05	
6.670034	9.407315e-06	2.089688e-05	9.393046e-06	1.915318e-05	
6.671034	9.400113e-06	1.994648e-05	9.458431e-06	1.920483e-05	
6.672034	9.402036e-06	1.902380e-05	9.525121e-06	1.925099e-05	
6.673034	9.413487e-06	1.813086e-05	9.593114e-06	1.929120e-05	
6.674034	9.434868e-06	1.726968e-05	9.662409e-06	1.932502e-05	
6.675034	9.466568e-06	1.644221e-05	9.733002e-06	1.935202e-05	
6.676035	9.508629e-06	1.564915e-05	9.804839e-06	1.937213e-05	
6.677035	9.560772e-06	1.488999e-05	9.877815e-06	1.938562e-05	
6.678035	9.622703e-06	1.416416e-05	9.951825e-06	1.939278e-05	
6.679035	9.694126e-06	1.347109e-05	1.002676e-05	1.939388e-05	
6.680035	9.774749e-06	1.281024e-05	1.010253e-05	1.938921e-05	
6.681035	9.864277e-06	1.218103e-05	1.017901e-05	1.937905e-05	
6.682035	9.962415e-06	1.158291e-05	1.025610e-05	1.936369e-05	
6.683035	1.006887e-05	1.101531e-05	1.033370e-05	1.934341e-05	
6.684036	1.018335e-05	1.047767e-05	1.041170e-05	1.931849e-05	
6.685036	1.030556e-05	9.969438e-06	1.049000e-05	1.928921e-05	
6.686036	1.043520e-05	9.490040e-06	1.056848e-05	1.925586e-05	
6.687036	1.057198e-05	9.038920e-06	1.064706e-05	1.921872e-05	
6.688036	1.071561e-05	8.615516e-06	1.072561e-05	1.917807e-05	
6.689036	1.086579e-05	8.219265e-06	1.080403e-05	1.913420e-05	
6.690036	1.102223e-05	7.849606e-06	1.088223e-05	1.908739e-05	
6.691036	1.118464e-05	7.505978e-06	1.096008e-05	1.903791e-05	
6.692037	1.135271e-05	7.187819e-06	1.103750e-05	1.898607e-05	
6.693037	1.152616e-05	6.894567e-06	1.111437e-05	1.893213e-05	
6.694037	1.170470e-05	6.625661e-06	1.119058e-05	1.887638e-05	
6.695037	1.188802e-05	6.380539e-06	1.126603e-05	1.881910e-05	
6.696037	1.207583e-05	6.158639e-06	1.134062e-05	1.876058e-05	
6.697037	1.226785e-05	5.959400e-06	1.141424e-05	1.870110e-05	
6.698037	1.246377e-05	5.782261e-06	1.148679e-05	1.864095e-05	
6.699038	1.266330e-05	5.626658e-06	1.155815e-05	1.858039e-05	
6.700038	1.286615e-05	5.492032e-06	1.162823e-05	1.851973e-05	
6.701038	1.307202e-05	5.377820e-06	1.169692e-05	1.845923e-05	
6.702038	1.328063e-05	5.283461e-06	1.176410e-05	1.839920e-05	
6.703038	1.349167e-05	5.208392e-06	1.182969e-05	1.833989e-05	
6.704038	1.370485e-05	5.152053e-06	1.189357e-05	1.828161e-05	
6.705038	1.391987e-05	5.113881e-06	1.195563e-05	1.822463e-05	
6.706038	1.413646e-05	5.093316e-06	1.201578e-05	1.816924e-05	
6.707039	1.435430e-05	5.089795e-06	1.207390e-05	1.811571e-05	
6.708039	1.457310e-05	5.102757e-06	1.212989e-05	1.806434e-05	
6.709039	1.479258e-05	5.131640e-06	1.218364e-05	1.801540e-05	
6.710039	1.501243e-05	5.175883e-06	1.223505e-05	1.796917e-05	
6.711039	1.523237e-05	5.234923e-06	1.228402e-05	1.792595e-05	
6.712039	1.545209e-05	5.308200e-06	1.233043e-05	1.788601e-05	
6.713039	1.567131e-05	5.395152e-06	1.237419e-05	1.784964e-05	
6.714039	1.588973e-05	5.495216e-06	1.241518e-05	1.781712e-05	
6.715040	1.610706e-05	5.607832e-06	1.245331e-05	1.778873e-05	
6.716040	1.632300e-05	5.732438e-06	1.248846e-05	1.776475e-05	
6.717040	1.653725e-05	5.868471e-06	1.252053e-05	1.774547e-05	
6.718040	1.674954e-05	6.015371e-06	1.254942e-05	1.773118e-05	
6.719040	1.695955e-05	6.172577e-06	1.257502e-05	1.772214e-05	
6.720040	1.716700e-05	6.339525e-06	1.259722e-05	1.771866e-05	
6.721040	1.737159e-05	6.515655e-06	1.261591e-05	1.772100e-05	
6.722041	1.757303e-05	6.700404e-06	1.263101e-05	1.772946e-05	
6.723041	1.777102e-05	6.893212e-06	1.264239e-05	1.774431e-05	
6.724041	1.796527e-05	7.093517e-06	1.264995e-05	1.776584e-05	
6.725041	1.815550e-05	7.300762e-06	1.265359e-05	1.779432e-05	
6.726041	1.834161e-05	7.514498e-06	1.265336e-05	1.782983e-05	
6.727041	1.852366e-05	7.734375e-06	1.264943e-05	1.787227e-05	
6.728041	1.870176e-05	7.960047e-06	1.264198e-05	1.792151e-05	
6.729041	1.887598e-05	8.191169e-06	1.263118e-05	1.797745e-05	
6.730042	1.904640e-05	8.427394e-06	1.261722e-05	1.803997e-05	
6.731042	1.921310e-05	8.668378e-06	1.260027e-05	1.810896e-05	
6.732042	1.937618e-05	8.913774e-06	1.258051e-05	1.818430e-05	
6.733042	1.953572e-05	9.163236e-06	1.255812e-05	1.826589e-05	
6.734042	1.969179e-05	9.416420e-06	1.253327e-05	1.835360e-05	
6.735042	1.984449e-05	9.672979e-06	1.250616e-05	1.844733e-05	
6.736042	1.999389e-05	9.932567e-06	1.247695e-05	1.854696e-05	
6.737042	2.014008e-05	1.019484e-05	1.244582e-05	1.865237e-05	
6.738043	2.028314e-05	1.045945e-05	1.241295e-05	1.876346e-05	
6.739043	2.042316e-05	1.072605e-05	1.237852e-05	1.888012e-05	
6.740043	2.056022e-05	1.099430e-05	1.234271e-05	1.900221e-05	
6.741043	2.069440e-05	1.126385e-05	1.230570e-05	1.912964e-05	
6.742043	2.082579e-05	1.153435e-05	1.226766e-05	1.926229e-05	
6.743043	2.095446e-05	1.180546e-05	1.222878e-05	1.940005e-05	
6.744043	2.108052e-05	1.207684e-05	1.218922e-05	1.954280e-05	
6.745044	2.120403e-05	1.234813e-05	1.214918e-05	1.969043e-05	
6.746044	2.132508e-05	1.261900e-05	1.210883e-05	1.984282e-05	
6.747044	2.144375e-05	1.288909e-05	1.206834e-05	1.999987e-05	
6.748044	2.156013e-05	1.315806e-05	1.202790e-05	2.016146e-05	
6.749044	2.167431e-05	1.342557e-05	1.198769e-05	2.032747e-05	
6.750044	2.178635e-05	1.369127e-05	1.194787e-05	2.049779e-05	
6.751044	2.189636e-05	1.395480e-05	1.190864e-05	2.067231e-05	
6.752044	2.200441e-05	1.421584e-05	1.187017e-05	2.085091e-05	
6.753045	2.211059e-05	1.447403e-05	1.183263e-05	2.103349e-05	
6.754045	2.221497e-05	1.472902e-05	1.179622e-05	2.121992e-05	
6.755045	2.231765e-05	1.498048e-05	1.176109e-05	2.141010e-05	
6.756045	2.241870e-05	1.522805e-05	1.172744e-05	2.160391e-05	
6.757045	2.251821e-05	1.547138e-05	1.169544e-05	2.180124e-05	
6.758045	2.261627e-05	1.571015e-05	1.166527e-05	2.200196e-05	
6.759045	2.271295e-05	1.594398e-05	1.163711e-05	2.220598e-05	
6.760045	2.280834e-05	1.617255e-05	1.161114e-05	2.241318e-05	
6.761046	2.290253e-05	1.639551e-05	1.158753e-05	2.262344e-05	
6.762046	2.299559e-05	1.661250e-05	1.156647e-05	2.283664e-05	
6.763046	2.308762e-05	1.682319e-05	1.154812e-05	2.305269e-05	
6.764046	2.317869e-05	1.702723e-05	1.153268e-05	2.327145e-05	
6.765046	2.326888e-05	1.722427e-05	1.152032e-05	2.349283e-05	
6.766046	2.335829e-05	1.741397e-05	1.151121e-05	2.371670e-05	
6.767046	2.344700e-05	1.759598e-05	1.150554e-05	2.394295e-05	
6.768046	2.353508e-05	1.776995e-05	1.150348e-05	2.417147e-05	
6.769047	2.362262e-05	1.793555e-05	1.150522e-05	2.440214e-05	
6.770047	2.370971e-05	1.809241e-05	1.151093e-05	2.463486e-05	
6.771047	2.379643e-05	1.824021e-05	1.152079e-05	2.486950e-05	
6.772047	2.388286e-05	1.837859e-05	1.153497e-05	2.510596e-05	
6.773047	2.396909e-05	1.850721e-05	1.155366e-05	2.534412e-05	
6.774047	2.405520e-05	1.862571e-05	1.157704e-05	2.558387e-05	
6.775047	2.414127e-05	1.873380e-05	1.160527e-05	2.582508e-05	
6.776048	2.422735e-05	1.883174e-05	1.163836e-05	2.606744e-05	
6.777048	2.431345e-05	1.892041e-05	1.167614e-05	2.631049e-05	
6.778048	2.439960e-05	1.900066e-05	1.171845e-05	2.655373e-05	
6.779048	2.448581e-05	1.907336e-05	1.176514e-05	2.679669e-05	
6.780048	2.457210e-05	1.913939e-05	1.181603e-05	2.703888e-05	
6.781048	2.465847e-05	1.919962e-05	1.187097e-05	2.727981e-05	
6.782048	2.474495e-05	1.925490e-05	1.192978e-05	2.751900e-05	
6.783048	2.483156e-05	1.930612e-05	1.199231e-05	2.775598e-05	
6.784049	2.491830e-05	1.935414e-05	1.205840e-05	2.799025e-05	
6.785049	2.500520e-05	1.939983e-05	1.212788e-05	2.822133e-05	
6.786049	2.509228e-05	1.944406e-05	1.220058e-05	2.844874e-05	
6.787049	2.517954e-05	1.948771e-05	1.227635e-05	2.867200e-05	
6.788049	2.526700e-05	1.953163e-05	1.235502e-05	2.889062e-05	
6.789049	2.535468e-05	1.957670e-05	1.243642e-05	2.910412e-05	
6.790049	2.544260e-05	1.962379e-05	1.252040e-05	2.931201e-05	
6.791049	2.553077e-05	1.967377e-05	1.260679e-05	2.951382e-05	
6.792050	2.561921e-05	1.972751e-05	1.269542e-05	2.970905e-05	
6.793050	2.570794e-05	1.978588e-05	1.278614e-05	2.989723e-05	
6.794050	2.579696e-05	1.984974e-05	1.287879e-05	3.007787e-05	
6.795050	2.588630e-05	1.991997e-05	1.297318e-05	3.025049e-05	
6.796050	2.597597e-05	1.999744e-05	1.306918e-05	3.041461e-05	
6.797050	2.606599e-05	2.008301e-05	1.316660e-05	3.056973e-05	
6.798050	2.615637e-05	2.017756e-05	1.326529e-05	3.071538e-05	
6.799051	2.624714e-05	2.028195e-05	1.336509e-05	3.085108e-05	
6.800051	2.633830e-05	2.039706e-05	1.346583e-05	3.097634e-05	
6.801051	2.642987e-05	2.052375e-05	1.356734e-05	3.109068e-05	
6.802051	2.652188e-05	2.066289e-05	1.366947e-05	3.119361e-05	
6.803051	2.661432e-05	2.081535e-05	1.377205e-05	3.128465e-05	
6.804051	2.670723e-05	2.098201e-05	1.387492e-05	3.136332e-05	
6.805051	2.680061e-05	2.116373e-05	1.397791e-05	3.142913e-05	
6.806051	2.689449e-05	2.136138e-05	1.408086e-05	3.148160e-05	
6.807052	2.698888e-05	2.157583e-05	1.418362e-05	3.152025e-05	
6.808052	2.708379e-05	2.180795e-05	1.428600e-05	3.154459e-05	
6.809052	2.717924e-05	2.205861e-05	1.438786e-05	3.155415e-05	
6.810052	2.727525e-05	2.232868e-05	1.448903e-05	3.154843e-05	
6.811052	2.737183e-05	2.261903e-05	1.458934e-05	3.152695e-05	
6.812052	2.746901e-05	2.293053e-05	1.468863e-05	3.148923e-05	
6.813052	2.756678e-05	2.326404e-05	1.478674e-05	3.143479e-05	
6.814052	2.766518e-05	2.362045e-05	1.488351e-05	3.136315e-05	
6.815053	2.776422e-05	2.400061e-05	1.497877e-05	3.127381e-05	
6.816053	2.786391e-05	2.440539e-05	1.507235e-05	3.116630e-05	
6.817053	2.796427e-05	2.483567e-05	1.516411e-05	3.104013e-05	
6.818053	2.806531e-05	2.529232e-05	1.525386e-05	3.089482e-05	
6.819053	2.816706e-05	2.577620e-05	1.534145e-05	3.072989e-05	
6.820053	2.826952e-05	2.628818e-05	1.542672e-05	3.054485e-05	
6.821053	2.837272e-05	2.682914e-05	1.550950e-05	3.033922e-05	
6.822054	2.847667e-05	2.739994e-05	1.558963e-05	3.011251e-05	
6.823054	2.858138e-05	2.800146e-05	1.566694e-05	2.986425e-05	
6.824054	2.868688e-05	2.863456e-05	1.574128e-05	2.959394e-05	
6.825054	2.879317e-05	2.930004e-05	1.581248e-05	2.930115e-05	
6.826054	2.890024e-05	2.999737e-05	1.588061e-05	2.898617e-05	
6.827054	2.900805e-05	3.072481e-05	1.594588e-05	2.864999e-05	
6.828054	2.911655e-05	3.148058e-05	1.600854e-05	2.829361e-05	
6.829054	2.922569e-05	3.226290e-05	1.606882e-05	2.791801e-05	
6.830055	2.933543e-05	3.306998e-05	1.612697e-05	2.752422e-05	
6.831055	2.944572e-05	3.390005e-05	1.618322e-05	2.711323e-05	
6.832055	2.955652e-05	3.475132e-05	1.623781e-05	2.668604e-05	
6.833055	2.966779e-05	3.562201e-05	1.629097e-05	2.624365e-05	
6.834055	2.977947e-05	3.651034e-05	1.634295e-05	2.578706e-05	
6.835055	2.989152e-05	3.741453e-05	1.639398e-05	2.531728e-05	
6.836055	3.000389e-05	3.833279e-05	1.644430e-05	2.483531e-05	
6.837055	3.011654e-05	3.926335e-05	1.649415e-05	2.434214e-05	
6.838056	3.022943e-05	4.020442e-05	1.654377e-05	2.383879e-05	
6.839056	3.034251e-05	4.115421e-05	1.659338e-05	2.332625e-05	
6.840056	3.045573e-05	4.211096e-05	1.664324e-05	2.280552e-05	
6.841056	3.056904e-05	4.307287e-05	1.669358e-05	2.227761e-05	
6.842056	3.068241e-05	4.403816e-05	1.674463e-05	2.174351e-05	
6.843056	3.079578e-05	4.500506e-05	1.679664e-05	2.120423e-05	
6.844056	3.090911e-05	4.597177e-05	1.684984e-05	2.066077e-05	
6.845057	3.102236e-05	4.693653e-05	1.690448e-05	2.011414e-05	
6.846057	3.113548e-05	4.789754e-05	1.696078e-05	1.956532e-05	
6.847057	3.124842e-05	4.885303e-05	1.701898e-05	1.901533e-05	
6.848057	3.136114e-05	4.980121e-05	1.707933e-05	1.846517e-05	
6.849057	3.147359e-05	5.074030e-05	1.714206e-05	1.791583e-05	
6.850057	3.158573e-05	5.166852e-05	1.720742e-05	1.736832e-05	
6.851057	3.169751e-05	5.258408e-05	1.727562e-05	1.682365e-05	
6.852057	3.180888e-05	5.348522e-05	1.734693e-05	1.628280e-05	
6.853058	3.191980e-05	5.437013e-05	1.742156e-05	1.574679e-05	
6.854058	3.203023e-05	5.523705e-05	1.749977e-05	1.521662e-05	
6.855058	3.214012e-05	5.608419e-05	1.758179e-05	1.469328e-05	
6.856058	3.224942e-05	5.690977e-05	1.766785e-05	1.417778e-05	
6.857058	3.235809e-05	5.771200e-05	1.775820e-05	1.367112e-05	
6.858058	3.246608e-05	5.848911e-05	1.785307e-05	1.317430e-05	
6.859058	3.257335e-05	5.923931e-05	1.795270e-05	1.268832e-05	
6.860058	3.267984e-05	5.996082e-05	1.805732e-05	1.221419e-05	
6.861059	3.278553e-05	6.065186e-05	1.816719e-05	1.175291e-05	
6.862059	3.289035e-05	6.131065e-05	1.828252e-05	1.130547e-05	
6.863059	3.299426e-05	6.193541e-05	1.840357e-05	1.087289e-05	
6.864059	3.309723e-05	6.252434e-05	1.853056e-05	1.045615e-05	
6.865059	3.319920e-05	6.307568e-05	1.866375e-05	1.005627e-05	
6.866059	3.330012e-05	6.358764e-05	1.880336e-05	9.674236e-06	
6.867059	3.339996e-05	6.405844e-05	1.894963e-05	9.311062e-06	
6.868059	3.349866e-05	6.448630e-05	1.910280e-05	8.967745e-06	
6.869060	3.359618e-05	6.486942e-05	1.926311e-05	8.645287e-06	
6.870060	3.369248e-05	6.520604e-05	1.943079e-05	8.344689e-06	
6.871060	3.378751e-05	6.549438e-05	1.960609e-05	8.066953e-06	
6.872060	3.388122e-05	6.573264e-05	1.978924e-05	7.813080e-06	
6.873060	3.397357e-05	6.591905e-05	1.998048e-05	7.584073e-06	
6.874060	3.406451e-05	6.605182e-05	2.018005e-05	7.380931e-06	
6.875060	3.415400e-05	6.612927e-05	2.038816e-05	7.204612e-06	
6.876061	3.424208e-05	6.615156e-05	2.060464e-05	7.055196e-06	
6.877061	3.432883e-05	6.612048e-05	2.082894e-05	6.931988e-06	
6.878061	3.441435e-05	6.603786e-05	2.106054e-05	6.834268e-06	
6.879061	3.449874e-05	6.590556e-05	2.129888e-05	6.761315e-06	
6.880061	3.458210e-05	6.572541e-05	2.154341e-05	6.712406e-06	
6.881061	3.466452e-05	6.549927e-05	2.179361e-05	6.686820e-06	
6.882061	3.474610e-05	6.522897e-05	2.204891e-05	6.683837e-06	
6.883061	3.482694e-05	6.491637e-05	2.230877e-05	6.702734e-06	
6.884062	3.490714e-05	6.456331e-05	2.257266e-05	6.742790e-06	
6.885062	3.498678e-05	6.417162e-05	2.284002e-05	6.803284e-06	
6.886062	3.506597e-05	6.374317e-05	2.311031e-05	6.883494e-06	
6.887062	3.514481e-05	6.327978e-05	2.338299e-05	6.982700e-06	
6.888062	3.522338e-05	6.278332e-05	2.365751e-05	7.100179e-06	
6.889062	3.530180e-05	6.225561e-05	2.393333e-05	7.235210e-06	
6.890062	3.538015e-05	6.169852e-05	2.420991e-05	7.387072e-06	
6.891062	3.545853e-05	6.111387e-05	2.448669e-05	7.555043e-06	
6.892063	3.553704e-05	6.050352e-05	2.476314e-05	7.738403e-06	
6.893063	3.561578e-05	5.986931e-05	2.503870e-05	7.936429e-06	
6.894063	3.569484e-05	5.921309e-05	2.531284e-05	8.148400e-06	
6.895063	3.577432e-05	5.853670e-05	2.558502e-05	8.373595e-06	
6.896063	3.585431e-05	5.784198e-05	2.585468e-05	8.611293e-06	
6.897063	3.593492e-05	5.713078e-05	2.612128e-05	8.860771e-06	
6.898063	3.601624e-05	5.640495e-05	2.638427e-05	9.121310e-06	
6.899064	3.609837e-05	5.566633e-05	2.664313e-05	9.392186e-06	
6.900064	3.618140e-05	5.491677e-05	2.689728e-05	9.672680e-06	
6.901064	3.626543e-05	5.415810e-05	2.714621e-05	9.962069e-06	
6.902064	3.635055e-05	5.339218e-05	2.738935e-05	1.025963e-05	
6.903064	3.643687e-05	5.262085e-05	2.762617e-05	1.056465e-05	
6.904064	3.652449e-05	5.184595e-05	2.785611e-05	1.087639e-05	
6.905064	3.661349e-05	5.106933e-05	2.807865e-05	1.119415e-05	
6.906064	3.670397e-05	5.029284e-05	2.829322e-05	1.151720e-05	
6.907065	3.679604e-05	4.951831e-05	2.849929e-05	1.184481e-05	
6.908065	3.688979e-05	4.874760e-05	2.869631e-05	1.217627e-05	
6.909065	3.698531e-05	4.798255e-05	2.888374e-05	1.251085e-05	
6.910065	3.708270e-05	4.722500e-05	2.906104e-05	1.284784e-05	
6.911065	3.718207e-05	4.647680e-05	2.922765e-05	1.318650e-05	
6.912065	3.728350e-05	4.573979e-05	2.938304e-05	1.352613e-05	
6.913065	3.738709e-05	4.501582e-05	2.952665e-05	1.386600e-05	
6.914065	3.749294e-05	4.430674e-05	2.965795e-05	1.420538e-05	
6.915066	3.760115e-05	4.361438e-05	2.977640e-05	1.454356e-05	
6.916066	3.771181e-05	4.294059e-05	2.988143e-05	1.487981e-05	
6.917066	3.782502e-05	4.228722e-05	2.997252e-05	1.521342e-05	
6.918066	3.794088e-05	4.165611e-05	3.004912e-05	1.554366e-05	
6.919066	3.805949e-05	4.104911e-05	3.011068e-05	1.586981e-05	
6.920066	3.818093e-05	4.046806e-05	3.015666e-05	1.619115e-05	
6.921066	3.830532e-05	3.991481e-05	3.018651e-05	1.650695e-05	
6.922067	3.843273e-05	3.939120e-05	3.019969e-05	1.681650e-05	
6.923067	3.856328e-05	3.889908e-05	3.019565e-05	1.711908e-05	
6.924067	3.869706e-05	3.844028e-05	3.017386e-05	1.741396e-05	
6.925067	3.883416e-05	3.801659e-05	3.013379e-05	1.770044e-05	
6.926067	3.897449e-05	3.762833e-05	3.007566e-05	1.797818e-05	
6.927067	3.911786e-05	3.727459e-05	3.000027e-05	1.824716e-05	
6.928067	3.926403e-05	3.695442e-05	2.990846e-05	1.850735e-05	
6.929067	3.941280e-05	3.666687e-05	2.980104e-05	1.875873e-05	
6.930068	3.956394e-05	3.641098e-05	2.967886e-05	1.900130e-05	
6.931068	3.971722e-05	3.618579e-05	2.954275e-05	1.923503e-05	
6.932068	3.987244e-05	3.599037e-05	2.939353e-05	1.945990e-05	
6.933068	4.002938e-05	3.582374e-05	2.923204e-05	1.967590e-05	
6.934068	4.018780e-05	3.568496e-05	2.905911e-05	1.988301e-05	
6.935068	4.034751e-05	3.557307e-05	2.887557e-05	2.008122e-05	
6.936068	4.050826e-05	3.548713e-05	2.868226e-05	2.027050e-05	
6.937068	4.066986e-05	3.542617e-05	2.847999e-05	2.045084e-05	
6.938069	4.083207e-05	3.538924e-05	2.826961e-05	2.062223e-05	
6.939069	4.099467e-05	3.537539e-05	2.805194e-05	2.078464e-05	
6.940069	4.115746e-05	3.538367e-05	2.782782e-05	2.093805e-05	
6.941069	4.132021e-05	3.541312e-05	2.759807e-05	2.108246e-05	
6.942069	4.148269e-05	3.546279e-05	2.736353e-05	2.121783e-05	
6.943069	4.164470e-05	3.553172e-05	2.712504e-05	2.134417e-05	
6.944069	4.180601e-05	3.561896e-05	2.688341e-05	2.146144e-05	
6.945069	4.196640e-05	3.572356e-05	2.663948e-05	2.156963e-05	
6.946070	4.212565e-05	3.584456e-05	2.639409e-05	2.166872e-05	
6.947070	4.228355e-05	3.598101e-05	2.614806e-05	2.175871e-05	
6.948070	4.243987e-05	3.613196e-05	2.590222e-05	2.183956e-05	
6.949070	4.259439e-05	3.629645e-05	2.565741e-05	2.191126e-05	
6.950070	4.274691e-05	3.647352e-05	2.541446e-05	2.197379e-05	
6.951070	4.289719e-05	3.666224e-05	2.517419e-05	2.202715e-05	
6.952070	4.304501e-05	3.686163e-05	2.493745e-05	2.207130e-05	
6.953071	4.319017e-05	3.707075e-05	2.470505e-05	2.210624e-05	
6.954071	4.333243e-05	3.728865e-05	2.447784e-05	2.213194e-05	
6.955071	4.347159e-05	3.751436e-05	2.425663e-05	2.214839e-05	
6.956071	4.360741e-05	3.774694e-05	2.404228e-05	2.215556e-05	
6.957071	4.373969e-05	3.798544e-05	2.383559e-05	2.215346e-05	
6.958071	4.386820e-05	3.822889e-05	2.363742e-05	2.214205e-05	
6.959071	4.399272e-05	3.847635e-05	2.344858e-05	2.212131e-05	
6.960071	4.411304e-05	3.872686e-05	2.326990e-05	2.209124e-05	
6.961072	4.422893e-05	3.897947e-05	2.310223e-05	2.205182e-05	
6.962072	4.434017e-05	3.923322e-05	2.294639e-05	2.200302e-05	
6.963072	4.444655e-05	3.948716e-05	2.280321e-05	2.194483e-05	
6.964072	4.454785e-05	3.974034e-05	2.267352e-05	2.187723e-05	
6.965072	4.464385e-05	3.999181e-05	2.255816e-05	2.180020e-05	
6.966072	4.473432e-05	4.024060e-05	2.245795e-05	2.171374e-05	
6.967072	4.481905e-05	4.048577e-05	2.237372e-05	2.161782e-05	
6.968072	4.489783e-05	4.072636e-05	2.230632e-05	2.151241e-05	
6.969073	4.497042e-05	4.096143e-05	2.225656e-05	2.139752e-05	
6.970073	4.503661e-05	4.119000e-05	2.222528e-05	2.127311e-05	
6.971073	4.509619e-05	4.141114e-05	2.221331e-05	2.113918e-05	
6.972073	4.514893e-05	4.162388e-05	2.222148e-05	2.099570e-05	
6.973073	4.519461e-05	4.182728e-05	2.225063e-05	2.084265e-05	
6.974073	4.523302e-05	4.202038e-05	2.230158e-05	2.068003e-05	
6.975073	4.526394e-05	4.220226e-05	2.237513e-05	2.050782e-05	
6.976074	4.528732e-05	4.237263e-05	2.247142e-05	2.032624e-05	
6.977074	4.530321e-05	4.253174e-05	2.259004e-05	2.013569e-05	
6.978074	4.531171e-05	4.267984e-05	2.273055e-05	1.993659e-05	
6.979074	4.531288e-05	4.281721e-05	2.289252e-05	1.972934e-05	
6.980074	4.530680e-05	4.294409e-05	2.307552e-05	1.951436e-05	
6.981074	4.529354e-05	4.306077e-05	2.327912e-05	1.929206e-05	
6.982074	4.527317e-05	4.316749e-05	2.350287e-05	1.906284e-05	
6.983074	4.524577e-05	4.326453e-05	2.374636e-05	1.882713e-05	
6.984075	4.521142e-05	4.335214e-05	2.400914e-05	1.858531e-05	
6.985075	4.517018e-05	4.343058e-05	2.429078e-05	1.833782e-05	
6.986075	4.512214e-05	4.350013e-05	2.459086e-05	1.808506e-05	
6.987075	4.506736e-05	4.356104e-05	2.490893e-05	1.782743e-05	
6.988075	4.500592e-05	4.361358e-05	2.524456e-05	1.756536e-05	
6.989075	4.493790e-05	4.365800e-05	2.559732e-05	1.729925e-05	
6.990075	4.486337e-05	4.369458e-05	2.596678e-05	1.702950e-05	
6.991075	4.478240e-05	4.372357e-05	2.635251e-05	1.675654e-05	
6.992076	4.469507e-05	4.374524e-05	2.675407e-05	1.648077e-05	
6.993076	4.460145e-05	4.375985e-05	2.717102e-05	1.620260e-05	
6.994076	4.450162e-05	4.376766e-05	2.760294e-05	1.592245e-05	
6.995076	4.439564e-05	4.376893e-05	2.804939e-05	1.564072e-05	
6.996076	4.428361e-05	4.376394e-05	2.850994e-05	1.535782e-05	
6.997076	4.416558e-05	4.375293e-05	2.898416e-05	1.507417e-05	
6.998076	4.404163e-05	4.373618e-05	2.947161e-05	1.479017e-05	
6.999077	4.391184e-05	4.371395e-05	2.997185e-05	1.450624e-05	
7.000077	4.377628e-05	4.368650e-05	3.048447e-05	1.422279e-05	
7.001077	4.363503e-05	4.365408e-05	3.100902e-05	1.394022e-05	
7.002077	4.348816e-05	4.361698e-05	3.154507e-05	1.365895e-05	
7.003077	4.333575e-05	4.357544e-05	3.209218e-05	1.337938e-05	
7.004077	4.317786e-05	4.352973e-05	3.264993e-05	1.310194e-05	
7.005077	4.301457e-05	4.348012e-05	3.321789e-05	1.282702e-05	
7.006077	4.284596e-05	4.342686e-05	3.379561e-05	1.255504e-05	
7.007078	4.267211e-05	4.337022e-05	3.438266e-05	1.228641e-05	
7.008078	4.249308e-05	4.331047e-05	3.497862e-05	1.202154e-05	
7.009078	4.230895e-05	4.324786e-05	3.558305e-05	1.176085e-05	
7.010078	4.211979e-05	4.318265e-05	3.619551e-05	1.150473e-05	
7.011078	4.192568e-05	4.311512e-05	3.681557e-05	1.125360e-05	
7.012078	4.172669e-05	4.304552e-05	3.744281e-05	1.100788e-05	
7.013078	4.152290e-05	4.297412e-05	3.807678e-05	1.076797e-05	
7.014078	4.131439e-05	4.290117e-05	3.871706e-05	1.053428e-05	
7.015079	4.110121e-05	4.282695e-05	3.936320e-05	1.030723e-05	
7.016079	4.088346e-05	4.275171e-05	4.001479e-05	1.008722e-05	
7.017079	4.066120e-05	4.267572e-05	4.067137e-05	9.874667e-06	
7.018079	4.043451e-05	4.259924e-05	4.133253e-05	9.669978e-06	
7.019079	4.020346e-05	4.252253e-05	4.199783e-05	9.473564e-06	
7.020079	3.996813e-05	4.244586e-05	4.266683e-05	9.285837e-06	
7.021079	3.972858e-05	4.236948e-05	4.333911e-05	9.107206e-06	
7.022079	3.948491e-05	4.229367e-05	4.401422e-05	8.938083e-06	
7.023080	3.923717e-05	4.221868e-05	4.469175e-05	8.778878e-06	
7.024080	3.898545e-05	4.214478e-05	4.537124e-05	8.630000e-06	
7.025080	3.872982e-05	4.207224e-05	4.605227e-05	8.491841e-06	
7.026080	3.847046e-05	4.200149e-05	4.673432e-05	8.364423e-06	
7.027080	3.820766e-05	4.193313e-05	4.741681e-05	8.247463e-06	
7.028080	3.794168e-05	4.186772e-05	4.809916e-05	8.140667e-06	
7.029080	3.767280e-05	4.180587e-05	4.878079e-05	8.043741e-06	
7.030081	3.740129e-05	4.174814e-05	4.946112e-05	7.956393e-06	
7.031081	3.712743e-05	4.169513e-05	5.013957e-05	7.878327e-06	
7.032081	3.685150e-05	4.164741e-05	5.081555e-05	7.809251e-06	
7.033081	3.657376e-05	4.160558e-05	5.148848e-05	7.748870e-06	
7.034081	3.629449e-05	4.157021e-05	5.215778e-05	7.696892e-06	
7.035081	3.601397e-05	4.154190e-05	5.282288e-05	7.653022e-06	
7.036081	3.573246e-05	4.152122e-05	5.348318e-05	7.616967e-06	
7.037081	3.545025e-05	4.150875e-05	5.413811e-05	7.588433e-06	
7.038082	3.516761e-05	4.150509e-05	5.478709e-05	7.567126e-06	
7.039082	3.488482e-05	4.151082e-05	5.542953e-05	7.552753e-06	
7.040082	3.460214e-05	4.152652e-05	5.606486e-05	7.545020e-06	
7.041082	3.431986e-05	4.155277e-05	5.669248e-05	7.543634e-06	
7.042082	3.403824e-05	4.159016e-05	5.731183e-05	7.548300e-06	
7.043082	3.375757e-05	4.163927e-05	5.792232e-05	7.558725e-06	
7.044082	3.347811e-05	4.170069e-05	5.852336e-05	7.574616e-06	
7.045082	3.320014e-05	4.177500e-05	5.911438e-05	7.595678e-06	
7.046083	3.292393e-05	4.186279e-05	5.969480e-05	7.621619e-06	
7.047083	3.264977e-05	4.196463e-05	6.026403e-05	7.652144e-06	
7.048083	3.237792e-05	4.208112e-05	6.082149e-05	7.686959e-06	
7.049083	3.210866e-05	4.221283e-05	6.136660e-05	7.725772e-06	
7.050083	3.184227e-05	4.236036e-05	6.189878e-05	7.768288e-06	
7.051083	3.157901e-05	4.252428e-05	6.241745e-05	7.814214e-06	
7.052083	3.131916e-05	4.270517e-05	6.292202e-05	7.863256e-06	
7.053084	3.106300e-05	4.290364e-05	6.341192e-05	7.915120e-06	
7.054084	3.081080e-05	4.312025e-05	6.388657e-05	7.969513e-06	
7.055084	3.056284e-05	4.335559e-05	6.434537e-05	8.026141e-06	
7.056084	3.031939e-05	4.361024e-05	6.478776e-05	8.084710e-06	
7.057084	3.008072e-05	4.388480e-05	6.521315e-05	8.144927e-06	
7.058084	2.984712e-05	4.417983e-05	6.562095e-05	8.206498e-06	
7.059084	2.961884e-05	4.449594e-05	6.601059e-05	8.269129e-06	
7.060084	2.939618e-05	4.483370e-05	6.638149e-05	8.332527e-06	
7.061085	2.917939e-05	4.519369e-05	6.673306e-05	8.396398e-06	
7.062085	2.896877e-05	4.557650e-05	6.706472e-05	8.460449e-06	
7.063085	2.876458e-05	4.598271e-05	6.737589e-05	8.524385e-06	
7.064085	2.856709e-05	4.641292e-05	6.766599e-05	8.587913e-06	
7.065085	2.837658e-05	4.686769e-05	6.793444e-05	8.650739e-06	
7.066085	2.819333e-05	4.734762e-05	6.818066e-05	8.712571e-06	
7.067085	2.801761e-05	4.785329e-05	6.840406e-05	8.773113e-06	
7.068085	2.784970e-05	4.838528e-05	6.860407e-05	8.832072e-06	
7.069086	2.768986e-05	4.894418e-05	6.878009e-05	8.889155e-06	
7.070086	2.753838e-05	4.953057e-05	6.893156e-05	8.944068e-06	
7.071086	2.739552e-05	5.014504e-05	6.905789e-05	8.996518e-06	
7.072086	2.726157e-05	5.078817e-05	6.915850e-05	9.046210e-06	
7.073086	2.713680e-05	5.146054e-05	6.923280e-05	9.092851e-06	
7.074086	2.702147e-05	5.216274e-05	6.928022e-05	9.136147e-06	
7.075086	2.691586e-05	5.289530e-05	6.930022e-05	9.175819e-06	
7.076087	2.681999e-05	5.365792e-05	6.929306e-05	9.211813e-06	
7.077087	2.673368e-05	5.444959e-05	6.925966e-05	9.244265e-06	
7.078087	2.665676e-05	5.526929e-05	6.920095e-05	9.273317e-06	
7.079087	2.658906e-05	5.611601e-05	6.911788e-05	9.299110e-06	
7.080087	2.653040e-05	5.698870e-05	6.901137e-05	9.321786e-06	
7.081087	2.648061e-05	5.788637e-05	6.888237e-05	9.341486e-06	
7.082087	2.643950e-05	5.880797e-05	6.873182e-05	9.358352e-06	
7.083087	2.640690e-05	5.975248e-05	6.856064e-05	9.372526e-06	
7.084088	2.638264e-05	6.071890e-05	6.836978e-05	9.384147e-06	
7.085088	2.636655e-05	6.170618e-05	6.816018e-05	9.393360e-06	
7.086088	2.635843e-05	6.271331e-05	6.793277e-05	9.400304e-06	
7.087088	2.635813e-05	6.373927e-05	6.768848e-05	9.405121e-06	
7.088088	2.636546e-05	6.478303e-05	6.742827e-05	9.407953e-06	
7.089088	2.638025e-05	6.584357e-05	6.715305e-05	9.408941e-06	
7.090088	2.640232e-05	6.691986e-05	6.686378e-05	9.408227e-06	
7.091088	2.643149e-05	6.801089e-05	6.656138e-05	9.405952e-06	
7.092089	2.646760e-05	6.911563e-05	6.624680e-05	9.402258e-06	
7.093089	2.651045e-05	7.023306e-05	6.592097e-05	9.397287e-06	
7.094089	2.655989e-05	7.136216e-05	6.558483e-05	9.391179e-06	
7.095089	2.661573e-05	7.250189e-05	6.523932e-05	9.384077e-06	
7.096089	2.667780e-05	7.365125e-05	6.488537e-05	9.376121e-06	
7.097089	2.674592e-05	7.480920e-05	6.452391e-05	9.367454e-06	
7.098089	2.681991e-05	7.597472e-05	6.415590e-05	9.358216e-06	
7.099089	2.689960e-05	7.714680e-05	6.378226e-05	9.348550e-06	
7.100090	2.698482e-05	7.832440e-05	6.340393e-05	9.338596e-06	
7.101090	2.707539e-05	7.950651e-05	6.302186e-05	9.328497e-06	
7.102090	2.717112e-05	8.069210e-05	6.263696e-05	9.318394e-06	
7.103090	2.727185e-05	8.188014e-05	6.225019e-05	9.308428e-06	
7.104090	2.737741e-05	8.306963e-05	6.186248e-05	9.298741e-06	
7.105090	2.748760e-05	8.425952e-05	6.147477e-05	9.289475e-06	
7.106090	2.760227e-05	8.544881e-05	6.108800e-05	9.280770e-06	
7.107091	2.772123e-05	8.663646e-05	6.070309e-05	9.272768e-06	
7.108091	2.784430e-05	8.782146e-05	6.032099e-05	9.265612e-06	
7.109091	2.797132e-05	8.900278e-05	5.994264e-05	9.259442e-06	
7.110091	2.810210e-05	9.017940e-05	5.956897e-05	9.254399e-06	
7.111091	2.823648e-05	9.135029e-05	5.920092e-05	9.250626e-06	
7.112091	2.837426e-05	9.251444e-05	5.883943e-05	9.248264e-06	
7.113091	2.851529e-05	9.367082e-05	5.848544e-05	9.247455e-06	
7.114091	2.865937e-05	9.481840e-05	5.813987e-05	9.248339e-06	
7.115092	2.880634e-05	9.595616e-05	5.780368e-05	9.251058e-06	
7.116092	2.895603e-05	9.708309e-05	5.747779e-05	9.255755e-06	
7.117092	2.910824e-05	9.819816e-05	5.716314e-05	9.262570e-06	
7.118092	2.926282e-05	9.930034e-05	5.686067e-05	9.271645e-06	
7.119092	2.941958e-05	1.003886e-04	5.657132e-05	9.283121e-06	
7.120092	2.957835e-05	1.014620e-04	5.629602e-05	9.297140e-06	
7.121092	2.973895e-05	1.025193e-04	5.603572e-05	9.313844e-06	
7.122092	2.990120e-05	1.035598e-04	5.579134e-05	9.333374e-06	
7.123093	3.006493e-05	1.045822e-04	5.556383e-05	9.355871e-06	
7.124093	3.022997e-05	1.055856e-04	5.535413e-05	9.381476e-06	
7.125093	3.039613e-05	1.065689e-04	5.516311e-05	9.410324e-06	
7.126093	3.056321e-05	1.075314e-04	5.499095e-05	9.442395e-06	
7.127093	3.073096e-05	1.084723e-04	5.483718e-05	9.477550e-06	
7.128093	3.089912e-05	1.093909e-04	5.470135e-05	9.515645e-06	
7.129093	3.106747e-05	1.102866e-04	5.458299e-05	9.556538e-06	
7.130094	3.123576e-05	1.111586e-04	5.448162e-05	9.600085e-06	
7.131094	3.140374e-05	1.120063e-04	5.439679e-05	9.646143e-06	
7.132094	3.157117e-05	1.128289e-04	5.432802e-05	9.694569e-06	
7.133094	3.173780e-05	1.136258e-04	5.427485e-05	9.745218e-06	
7.134094	3.190339e-05	1.143962e-04	5.423682e-05	9.797949e-06	
7.135094	3.206770e-05	1.151395e-04	5.421345e-05	9.852617e-06	
7.136094	3.223048e-05	1.158549e-04	5.420429e-05	9.909080e-06	
7.137094	3.239149e-05	1.165419e-04	5.420886e-05	9.967193e-06	
7.138095	3.255048e-05	1.171996e-04	5.422670e-05	1.002681e-05	
7.139095	3.270721e-05	1.178274e-04	5.425734e-05	1.008780e-05	
7.140095	3.286144e-05	1.184246e-04	5.430031e-05	1.015001e-05	
7.141095	3.301292e-05	1.189904e-04	5.435516e-05	1.021329e-05	
7.142095	3.316141e-05	1.195243e-04	5.442140e-05	1.027751e-05	
7.143095	3.330666e-05	1.200255e-04	5.449858e-05	1.034252e-05	
7.144095	3.344843e-05	1.204933e-04	5.458623e-05	1.040818e-05	
7.145095	3.358647e-05	1.209270e-04	5.468389e-05	1.047434e-05	
7.146096	3.372055e-05	1.213259e-04	5.479107e-05	1.054087e-05	
7.147096	3.385041e-05	1.216893e-04	5.490733e-05	1.060761e-05	
7.148096	3.397582e-05	1.220166e-04	5.503220e-05	1.067443e-05	
7.149096	3.409652e-05	1.223070e-04	5.516520e-05	1.074118e-05	
7.150096	3.421228e-05	1.225598e-04	5.530586e-05	1.080771e-05	
7.151096	3.432285e-05	1.227744e-04	5.545374e-05	1.087389e-05	
7.152096	3.442799e-05	1.229500e-04	5.560835e-05	1.093958e-05	
7.153097	3.452745e-05	1.230860e-04	5.576923e-05	1.100462e-05	
7.154097	3.462099e-05	1.231816e-04	5.593592e-05	1.106888e-05	
7.155097	3.470836e-05	1.232362e-04	5.610794e-05	1.113220e-05	
7.156097	3.478933e-05	1.232490e-04	5.628484e-05	1.119446e-05	
7.157097	3.486364e-05	1.232195e-04	5.646614e-05	1.125550e-05	
7.158097	3.493105e-05	1.231467e-04	5.665138e-05	1.131519e-05	
7.159097	3.499132e-05	1.230302e-04	5.684009e-05	1.137337e-05	
7.160097	3.504420e-05	1.228692e-04	5.703181e-05	1.142991e-05	
7.161098	3.508946e-05	1.226629e-04	5.722606e-05	1.148466e-05	
7.162098	3.512684e-05	1.224108e-04	5.742239e-05	1.153747e-05	
7.163098	3.515610e-05	1.221120e-04	5.762033e-05	1.158822e-05	
7.164098	3.517700e-05	1.217660e-04	5.781940e-05	1.163674e-05	
7.165098	3.518929e-05	1.213719e-04	5.801915e-05	1.168291e-05	
7.166098	3.519273e-05	1.209292e-04	5.821911e-05	1.172656e-05	
7.167098	3.518708e-05	1.204371e-04	5.841881e-05	1.176758e-05	
7.168098	3.517209e-05	1.198949e-04	5.861778e-05	1.180580e-05	
7.169099	3.514752e-05	1.193019e-04	5.881555e-05	1.184108e-05	
7.170099	3.511312e-05	1.186575e-04	5.901167e-05	1.187329e-05	
7.171099	3.506865e-05	1.179609e-04	5.920567e-05	1.190228e-05	
7.172099	3.501386e-05	1.172114e-04	5.939707e-05	1.192790e-05	
7.173099	3.494851e-05	1.164084e-04	5.958541e-05	1.195002e-05	
7.174099	3.487237e-05	1.155512e-04	5.977023e-05	1.196848e-05	
7.175099	3.478520e-05	1.146391e-04	5.995106e-05	1.198316e-05	
7.176099	3.468734e-05	1.136731e-04	6.012759e-05	1.199403e-05	
7.177100	3.457951e-05	1.126556e-04	6.029958e-05	1.200117e-05	
7.178100	3.446247e-05	1.115887e-04	6.046682e-05	1.200467e-05	
7.179100	3.433696e-05	1.104748e-04	6.062909e-05	1.200459e-05	
7.180100	3.420373e-05	1.093162e-04	6.078617e-05	1.200101e-05	
7.181100	3.406352e-05	1.081152e-04	6.093783e-05	1.199403e-05	
7.182100	3.391709e-05	1.068740e-04	6.108387e-05	1.198371e-05	
7.183100	3.376518e-05	1.055950e-04	6.122406e-05	1.197013e-05	
7.184101	3.360854e-05	1.042804e-04	6.135818e-05	1.195337e-05	
7.185101	3.344791e-05	1.029325e-04	6.148601e-05	1.193351e-05	
7.186101	3.328405e-05	1.015537e-04	6.160733e-05	1.191064e-05	
7.187101	3.311770e-05	1.001461e-04	6.172192e-05	1.188482e-05	
7.188101	3.294961e-05	9.871221e-05	6.182957e-05	1.185613e-05	
7.189101	3.278053e-05	9.725418e-05	6.193006e-05	1.182467e-05	
7.190101	3.261120e-05	9.577435e-05	6.202316e-05	1.179049e-05	
7.191101	3.244237e-05	9.427500e-05	6.210865e-05	1.175369e-05	
7.192102	3.227479e-05	9.275842e-05	6.218632e-05	1.171434e-05	
7.193102	3.210921e-05	9.122690e-05	6.225594e-05	1.167252e-05	
7.194102	3.194637e-05	8.968274e-05	6.231731e-05	1.162831e-05	
7.195102	3.178703e-05	8.812822e-05	6.237019e-05	1.158178e-05	
7.196102	3.163192e-05	8.656565e-05	6.241436e-05	1.153302e-05	
7.197102	3.148181e-05	8.499730e-05	6.244962e-05	1.148211e-05	
7.198102	3.133742e-05	8.342548e-05	6.247574e-05	1.142912e-05	
7.199102	3.119952e-05	8.185247e-05	6.249249e-05	1.137413e-05	
7.200103	3.106885e-05	8.028056e-05	6.249967e-05	1.131722e-05	
7.201103	3.094616e-05	7.871205e-05	6.249705e-05	1.125847e-05	
7.202103	3.083219e-05	7.714923e-05	6.248440e-05	1.119796e-05	
7.203103	3.072770e-05	7.559439e-05	6.246152e-05	1.113576e-05	
7.204103	3.063342e-05	7.404982e-05	6.242819e-05	1.107196e-05	
7.205103	3.055011e-05	7.251781e-05	6.238417e-05	1.100664e-05	
7.206103	3.047852e-05	7.100065e-05	6.232926e-05	1.093987e-05	
7.207104	3.041939e-05	6.950064e-05	6.226324e-05	1.087172e-05	
7.208104	3.037347e-05	6.802007e-05	6.218588e-05	1.080229e-05	
7.209104	3.034151e-05	6.656122e-05	6.209696e-05	1.073165e-05	
7.210104	3.032425e-05	6.512640e-05	6.199627e-05	1.065988e-05	
7.211104	3.032245e-05	6.371789e-05	6.188359e-05	1.058705e-05	
7.212104	3.033685e-05	6.233798e-05	6.175869e-05	1.051324e-05	
7.213104	3.036819e-05	6.098896e-05	6.162137e-05	1.043854e-05	
7.214104	3.041723e-05	5.967314e-05	6.147139e-05	1.036302e-05	
7.215105	3.048472e-05	5.839279e-05	6.130854e-05	1.028677e-05	
7.216105	3.057139e-05	5.715021e-05	6.113260e-05	1.020985e-05	
7.217105	3.067801e-05	5.594768e-05	6.094335e-05	1.013235e-05	
7.218105	3.080531e-05	5.478752e-05	6.074057e-05	1.005435e-05	
7.219105	3.095404e-05	5.367199e-05	6.052404e-05	9.975921e-06	
7.220105	3.112495e-05	5.260341e-05	6.029354e-05	9.897148e-06	
7.221105	3.131879e-05	5.158404e-05	6.004885e-05	9.818108e-06	
7.222105	3.153631e-05	5.061620e-05	5.978976e-05	9.738880e-06	
7.223106	3.177825e-05	4.970217e-05	5.951604e-05	9.659542e-06	
7.224106	3.204537e-05	4.884424e-05	5.922748e-05	9.580173e-06	
7.225106	3.233833e-05	4.804455e-05	5.892388e-05	9.500854e-06	
7.226106	3.265674e-05	4.730297e-05	5.860549e-05	9.421694e-06	
7.227106	3.299936e-05	4.661754e-05	5.827292e-05	9.342826e-06	
7.228106	3.336491e-05	4.598626e-05	5.792678e-05	9.264383e-06	
7.229106	3.375213e-05	4.540715e-05	5.756768e-05	9.186498e-06	
7.230107	3.415974e-05	4.487820e-05	5.719623e-05	9.109306e-06	
7.231107	3.458648e-05	4.439742e-05	5.681304e-05	9.032938e-06	
7.232107	3.503108e-05	4.396282e-05	5.641872e-05	8.957528e-06	
7.233107	3.549226e-05	4.357239e-05	5.601388e-05	8.883210e-06	
7.234107	3.596876e-05	4.322415e-05	5.559914e-05	8.810116e-06	
7.235107	3.645931e-05	4.291609e-05	5.517510e-05	8.738381e-06	
7.236107	3.696264e-05	4.264622e-05	5.474238e-05	8.668137e-06	
7.237107	3.747748e-05	4.241254e-05	5.430158e-05	8.599517e-06	
7.238108	3.800255e-05	4.221306e-05	5.385333e-05	8.532655e-06	
7.239108	3.853660e-05	4.204579e-05	5.339822e-05	8.467684e-06	
7.240108	3.907835e-05	4.190872e-05	5.293687e-05	8.404738e-06	
7.241108	3.962653e-05	4.179985e-05	5.246989e-05	8.343949e-06	
7.242108	4.017988e-05	4.171721e-05	5.199789e-05	8.285450e-06	
7.243108	4.073711e-05	4.165878e-05	5.152148e-05	8.229376e-06	
7.244108	4.129697e-05	4.162257e-05	5.104128e-05	8.175860e-06	
7.245108	4.185819e-05	4.160659e-05	5.055789e-05	8.125034e-06	
7.246109	4.241949e-05	4.160884e-05	5.007192e-05	8.077031e-06	
7.247109	4.297960e-05	4.162732e-05	4.958400e-05	8.031986e-06	
7.248109	4.353726e-05	4.166005e-05	4.909471e-05	7.990032e-06	
7.249109	4.409119e-05	4.170501e-05	4.860469e-05	7.951300e-06	
7.250109	4.464013e-05	4.176022e-05	4.811454e-05	7.915926e-06	
7.251109	4.518281e-05	4.182368e-05	4.762486e-05	7.884042e-06	
7.252109	4.571796e-05	4.189340e-05	4.713628e-05	7.855782e-06	
7.253109	4.624430e-05	4.196737e-05	4.664939e-05	7.831278e-06	
7.254110	4.676058e-05	4.204361e-05	4.616482e-05	7.810664e-06	
7.255110	4.726551e-05	4.212011e-05	4.568317e-05	7.794074e-06	
7.256110	4.775783e-05	4.219488e-05	4.520506e-05	7.781640e-06	
7.257110	4.823627e-05	4.226593e-05	4.473109e-05	7.773495e-06	
7.258110	4.869957e-05	4.233126e-05	4.426188e-05	7.769774e-06	
7.259110	4.914644e-05	4.238886e-05	4.379804e-05	7.770609e-06	
7.260110	4.957563e-05	4.243676e-05	4.334017e-05	7.776133e-06	
7.261111	4.998586e-05	4.247295e-05	4.288890e-05	7.786481e-06	
7.262111	5.037586e-05	4.249543e-05	4.244482e-05	7.801784e-06	
7.263111	5.074437e-05	4.250221e-05	4.200855e-05	7.822177e-06	
7.264111	5.109011e-05	4.249129e-05	4.158071e-05	7.847792e-06	
7.265111	5.141182e-05	4.246068e-05	4.116190e-05	7.878763e-06	
7.266111	5.170822e-05	4.240838e-05	4.075273e-05	7.915223e-06	
7.267111	5.197805e-05	4.233240e-05	4.035382e-05	7.957306e-06	
7.268111	5.222003e-05	4.223073e-05	3.996577e-05	8.005144e-06	
7.269112	5.243290e-05	4.210139e-05	3.958920e-05	8.058871e-06	
7.270112	5.261539e-05	4.194238e-05	3.922472e-05	8.118620e-06	
7.271112	5.276623e-05	4.175169e-05	3.887293e-05	8.184525e-06	
7.272112	5.288414e-05	4.152735e-05	3.853446e-05	8.256718e-06	
7.273112	5.296786e-05	4.126734e-05	3.820990e-05	8.335334e-06	
7.274112	5.301613e-05	4.096967e-05	3.789988e-05	8.420504e-06	
7.275112	5.302775e-05	4.063250e-05	3.760496e-05	8.512346e-06	
7.276112	5.300294e-05	4.025618e-05	3.732521e-05	8.610724e-06	
7.277113	5.294295e-05	3.984277e-05	3.706026e-05	8.715304e-06	
7.278113	5.284907e-05	3.939438e-05	3.680974e-05	8.825750e-06	
7.279113	5.272260e-05	3.891311e-05	3.657330e-05	8.941725e-06	
7.280113	5.256483e-05	3.840108e-05	3.635058e-05	9.062890e-06	
7.281113	5.237706e-05	3.786039e-05	3.614119e-05	9.188910e-06	
7.282113	5.216056e-05	3.729314e-05	3.594479e-05	9.319445e-06	
7.283113	5.191664e-05	3.670145e-05	3.576099e-05	9.454160e-06	
7.284114	5.164658e-05	3.608742e-05	3.558945e-05	9.592716e-06	
7.285114	5.135168e-05	3.545316e-05	3.542980e-05	9.734777e-06	
7.286114	5.103323e-05	3.480078e-05	3.528166e-05	9.880005e-06	
7.287114	5.069252e-05	3.413237e-05	3.514467e-05	1.002806e-05	
7.288114	5.033084e-05	3.345006e-05	3.501848e-05	1.017861e-05	
7.289114	4.994948e-05	3.275594e-05	3.490271e-05	1.033132e-05	
7.290114	4.954974e-05	3.205213e-05	3.479700e-05	1.048584e-05	
7.291114	4.913291e-05	3.134073e-05	3.470098e-05	1.064185e-05	
7.292115	4.870027e-05	3.062385e-05	3.461429e-05	1.079899e-05	
7.293115	4.825313e-05	2.990359e-05	3.453656e-05	1.095694e-05	
7.294115	4.779277e-05	2.918206e-05	3.446744e-05	1.111537e-05	
7.295115	4.732048e-05	2.846137e-05	3.440655e-05	1.127392e-05	
7.296115	4.683756e-05	2.774363e-05	3.435352e-05	1.143226e-05	
7.297115	4.634529e-05	2.703094e-05	3.430800e-05	1.159007e-05	
7.298115	4.584498e-05	2.632542e-05	3.426962e-05	1.174699e-05	
7.299115	4.533790e-05	2.562916e-05	3.423801e-05	1.190269e-05	
7.300116	4.482535e-05	2.494427e-05	3.421282e-05	1.205684e-05	
7.301116	4.430863e-05	2.427287e-05	3.419366e-05	1.220910e-05	
7.302116	4.378903e-05	2.361705e-05	3.418019e-05	1.235912e-05	
7.303116	4.326783e-05	2.297893e-05	3.417202e-05	1.250658e-05	
7.304116	4.274633e-05	2.236061e-05	3.416881e-05	1.265113e-05	
7.305116	4.222582e-05	2.176421e-05	3.417018e-05	1.279245e-05	
7.306116	4.170759e-05	2.119182e-05	3.417577e-05	1.293018e-05	
7.307117	4.119294e-05	2.064555e-05	3.418521e-05	1.306399e-05	
7.308117	4.068315e-05	2.012751e-05	3.419814e-05	1.319355e-05	
7.309117	4.017951e-05	1.963981e-05	3.421419e-05	1.331852e-05	
7.310117	3.968333e-05	1.918456e-05	3.423300e-05	1.343857e-05	
7.311117	3.919589e-05	1.876386e-05	3.425421e-05	1.355334e-05	
7.312117	3.871847e-05	1.837982e-05	3.427744e-05	1.366251e-05	
7.313117	3.825238e-05	1.803454e-05	3.430233e-05	1.376574e-05	
7.314117	3.779891e-05	1.773014e-05	3.432853e-05	1.386270e-05	
7.315118	3.735934e-05	1.746872e-05	3.435566e-05	1.395304e-05	
7.316118	3.693498e-05	1.725239e-05	3.438335e-05	1.403642e-05	
7.317118	3.652710e-05	1.708325e-05	3.441125e-05	1.411252e-05	
7.318118	3.613700e-05	1.696341e-05	3.443899e-05	1.418099e-05	
7.319118	3.576598e-05	1.689498e-05	3.446620e-05	1.424149e-05	
7.320118	3.541532e-05	1.688007e-05	3.449251e-05	1.429369e-05	
7.321118	3.508632e-05	1.692078e-05	3.451757e-05	1.433725e-05	
7.322118	3.478027e-05	1.701922e-05	3.454101e-05	1.437184e-05	
7.323119	3.449845e-05	1.717749e-05	3.456246e-05	1.439711e-05	
7.324119	3.424217e-05	1.739771e-05	3.458156e-05	1.441273e-05	
7.325119	3.401264e-05	1.768180e-05	3.459796e-05	1.441839e-05	
7.326119	3.380993e-05	1.802902e-05	3.461149e-05	1.441420e-05	
7.327119	3.363327e-05	1.843658e-05	3.462215e-05	1.440055e-05	
7.328119	3.348185e-05	1.890165e-05	3.462994e-05	1.437789e-05	
7.329119	3.335487e-05	1.942142e-05	3.463484e-05	1.434663e-05	
7.330119	3.325153e-05	1.999305e-05	3.463686e-05	1.430719e-05	
7.331120	3.317103e-05	2.061371e-05	3.463598e-05	1.426000e-05	
7.332120	3.311256e-05	2.128057e-05	3.463221e-05	1.420548e-05	
7.333120	3.307532e-05	2.199081e-05	3.462553e-05	1.414405e-05	
7.334120	3.305850e-05	2.274160e-05	3.461594e-05	1.407614e-05	
7.335120	3.306131e-05	2.353011e-05	3.460344e-05	1.400216e-05	
7.336120	3.308295e-05	2.435351e-05	3.458802e-05	1.392254e-05	
7.337120	3.312260e-05	2.520897e-05	3.456967e-05	1.383771e-05	
7.338121	3.317947e-05	2.609367e-05	3.454838e-05	1.374807e-05	
7.339121	3.325275e-05	2.700477e-05	3.452416e-05	1.365407e-05	
7.340121	3.334165e-05	2.793945e-05	3.449700e-05	1.355612e-05	
7.341121	3.344535e-05	2.889488e-05	3.446689e-05	1.345464e-05	
7.342121	3.356306e-05	2.986823e-05	3.443382e-05	1.335006e-05	
7.343121	3.369397e-05	3.085668e-05	3.439779e-05	1.324279e-05	
7.344121	3.383728e-05	3.185739e-05	3.435880e-05	1.313327e-05	
7.345121	3.399219e-05	3.286753e-05	3.431683e-05	1.302190e-05	
7.346122	3.415790e-05	3.388428e-05	3.427189e-05	1.290913e-05	
7.347122	3.433360e-05	3.490482e-05	3.422397e-05	1.279536e-05	
7.348122	3.451848e-05	3.592630e-05	3.417306e-05	1.268103e-05	
7.349122	3.471176e-05	3.694591e-05	3.411915e-05	1.256654e-05	
7.350122	3.491262e-05	3.796081e-05	3.406225e-05	1.245234e-05	
7.351122	3.512026e-05	3.896817e-05	3.400234e-05	1.233883e-05	
7.352122	3.533388e-05	3.996518e-05	3.393942e-05	1.222645e-05	
7.353122	3.555268e-05	4.094899e-05	3.387349e-05	1.211561e-05	
7.354123	3.577585e-05	4.191679e-05	3.380453e-05	1.200674e-05	
7.355123	3.600259e-05	4.286574e-05	3.373254e-05	1.190025e-05	
7.356123	3.623210e-05	4.379301e-05	3.365753e-05	1.179658e-05	
7.357123	3.646357e-05	4.469578e-05	3.357947e-05	1.169615e-05	
7.358123	3.669621e-05	4.557122e-05	3.349837e-05	1.159937e-05	
7.359123	3.692921e-05	4.641649e-05	3.341422e-05	1.150667e-05	
7.360123	3.716177e-05	4.722878e-05	3.332702e-05	1.141847e-05	
7.361124	3.739308e-05	4.800525e-05	3.323675e-05	1.133520e-05	
7.362124	3.762234e-05	4.874308e-05	3.314342e-05	1.125728e-05	
7.363124	3.784875e-05	4.943943e-05	3.304702e-05	1.118513e-05	
7.364124	3.807151e-05	5.009148e-05	3.294754e-05	1.111917e-05	
7.365124	3.828982e-05	5.069640e-05	3.284498e-05	1.105983e-05	
7.366124	3.850286e-05	5.125136e-05	3.273932e-05	1.100752e-05	
7.367124	3.870985e-05	5.175353e-05	3.263058e-05	1.096268e-05	
7.368124	3.890997e-05	5.220009e-05	3.251873e-05	1.092572e-05	
7.369125	3.910242e-05	5.258820e-05	3.240378e-05	1.089707e-05	
7.370125	3.928640e-05	5.291504e-05	3.228571e-05	1.087714e-05	
7.371125	3.946112e-05	5.317778e-05	3.216453e-05	1.086637e-05	
7.372125	3.962575e-05	5.337360e-05	3.204023e-05	1.086517e-05	
7.373125	3.977951e-05	5.349965e-05	3.191280e-05	1.087397e-05	
7.374125	3.992159e-05	5.355312e-05	3.178224e-05	1.089319e-05	
7.375125	4.005124e-05	5.353139e-05	3.164854e-05	1.092322e-05	
7.376125	4.016831e-05	5.343495e-05	3.151180e-05	1.096394e-05	
7.377126	4.027314e-05	5.326660e-05	3.137218e-05	1.101487e-05	
7.378126	4.036609e-05	5.302918e-05	3.122983e-05	1.107552e-05	
7.379126	4.044750e-05	5.272556e-05	3.108492e-05	1.114540e-05	
7.380126	4.051772e-05	5.235858e-05	3.093760e-05	1.122402e-05	
7.381126	4.057710e-05	5.193110e-05	3.078803e-05	1.131087e-05	
7.382126	4.062598e-05	5.144598e-05	3.063637e-05	1.140548e-05	
7.383126	4.066471e-05	5.090607e-05	3.048279e-05	1.150733e-05	
7.384127	4.069365e-05	5.031422e-05	3.032744e-05	1.161595e-05	
7.385127	4.071313e-05	4.967329e-05	3.017047e-05	1.173084e-05	
7.386127	4.072350e-05	4.898613e-05	3.001206e-05	1.185151e-05	
7.387127	4.072512e-05	4.825559e-05	2.985235e-05	1.197746e-05	
7.388127	4.071834e-05	4.748453e-05	2.969151e-05	1.210820e-05	
7.389127	4.070349e-05	4.667581e-05	2.952970e-05	1.224324e-05	
7.390127	4.068092e-05	4.583228e-05	2.936708e-05	1.238208e-05	
7.391127	4.065100e-05	4.495678e-05	2.920380e-05	1.252424e-05	
7.392128	4.061405e-05	4.405219e-05	2.904003e-05	1.266921e-05	
7.393128	4.057043e-05	4.312134e-05	2.887592e-05	1.281651e-05	
7.394128	4.052050e-05	4.216710e-05	2.871163e-05	1.296565e-05	
7.395128	4.046459e-05	4.119231e-05	2.854733e-05	1.311612e-05	
7.396128	4.040305e-05	4.019984e-05	2.838317e-05	1.326744e-05	
7.397128	4.033623e-05	3.919253e-05	2.821932e-05	1.341912e-05	
7.398128	4.026449e-05	3.817324e-05	2.805592e-05	1.357066e-05	
7.399128	4.018816e-05	3.714483e-05	2.789314e-05	1.372157e-05	
7.400129	4.010759e-05	3.611014e-05	2.773115e-05	1.387136e-05	
7.401129	4.002314e-05	3.507204e-05	2.757009e-05	1.401953e-05	
7.402129	3.993515e-05	3.403337e-05	2.741013e-05	1.416559e-05	
7.403129	3.984396e-05	3.299700e-05	2.725143e-05	1.430905e-05	
7.404129	3.974993e-05	3.196576e-05	2.709415e-05	1.444941e-05	
7.405129	3.965341e-05	3.094253e-05	2.693844e-05	1.458618e-05	
7.406129	3.955474e-05	2.993015e-05	2.678447e-05	1.471888e-05	
7.407129	3.945426e-05	2.893147e-05	2.663239e-05	1.484700e-05	
7.408130	3.935234e-05	2.794936e-05	2.648237e-05	1.497005e-05	
7.409130	3.924931e-05	2.698666e-05	2.633456e-05	1.508755e-05	
7.410130	3.914552e-05	2.604623e-05	2.618912e-05	1.519899e-05	
7.411130	3.904132e-05	2.513093e-05	2.604622e-05	1.530388e-05	
7.412130	3.893706e-05	2.424360e-05	2.590601e-05	1.540174e-05	
7.413130	3.883309e-05	2.338710e-05	2.576865e-05	1.549207e-05	
7.414130	3.872975e-05	2.256428e-05	2.563429e-05	1.557437e-05	
7.415131	3.862739e-05	2.177801e-05	2.550311e-05	1.564816e-05	
7.416131	3.852636e-05	2.103113e-05	2.537526e-05	1.571294e-05	
7.417131	3.842701e-05	2.032649e-05	2.525089e-05	1.576821e-05	
7.418131	3.832969e-05	1.966696e-05	2.513018e-05	1.581349e-05	
7.419131	3.823473e-05	1.905538e-05	2.501326e-05	1.584828e-05	
7.420131	3.814250e-05	1.849461e-05	2.490032e-05	1.587210e-05	
7.421131	3.805334e-05	1.798751e-05	2.479150e-05	1.588443e-05	
7.422131	3.796759e-05	1.753692e-05	2.468696e-05	1.588480e-05	
7.423132	3.788561e-05	1.714571e-05	2.458687e-05	1.587271e-05	
7.424132	3.780774e-05	1.681672e-05	2.449139e-05	1.584767e-05	
7.425132	3.773431e-05	1.655261e-05	2.440065e-05	1.580922e-05	
7.426132	3.766543e-05	1.635324e-05	2.431457e-05	1.575746e-05	
7.427132	3.760104e-05	1.621642e-05	2.423291e-05	1.569288e-05	
7.428132	3.754107e-05	1.613992e-05	2.415542e-05	1.561598e-05	
7.429132	3.748545e-05	1.612149e-05	2.408186e-05	1.552726e-05	
7.430132	3.743412e-05	1.615890e-05	2.401196e-05	1.542723e-05	
7.431133	3.738702e-05	1.624991e-05	2.394547e-05	1.531640e-05	
7.432133	3.734407e-05	1.639228e-05	2.388216e-05	1.519525e-05	
7.433133	3.730522e-05	1.658378e-05	2.382177e-05	1.506430e-05	
7.434133	3.727039e-05	1.682216e-05	2.376404e-05	1.492406e-05	
7.435133	3.723953e-05	1.710520e-05	2.370873e-05	1.477501e-05	
7.436133	3.721256e-05	1.743064e-05	2.365559e-05	1.461767e-05	
7.437133	3.718942e-05	1.779626e-05	2.360437e-05	1.445253e-05	
7.438134	3.717004e-05	1.819982e-05	2.355482e-05	1.428010e-05	
7.439134	3.715436e-05	1.863908e-05	2.350668e-05	1.410089e-05	
7.440134	3.714232e-05	1.911180e-05	2.345971e-05	1.391539e-05	
7.441134	3.713384e-05	1.961574e-05	2.341366e-05	1.372411e-05	
7.442134	3.712887e-05	2.014867e-05	2.336828e-05	1.352755e-05	
7.443134	3.712733e-05	2.070835e-05	2.332331e-05	1.332622e-05	
7.444134	3.712916e-05	2.129254e-05	2.327852e-05	1.312061e-05	
7.445134	3.713430e-05	2.189901e-05	2.323364e-05	1.291123e-05	
7.446135	3.714267e-05	2.252551e-05	2.318842e-05	1.269858e-05	
7.447135	3.715422e-05	2.316980e-05	2.314263e-05	1.248317e-05	
7.448135	3.716887e-05	2.382966e-05	2.309600e-05	1.226549e-05	
7.449135	3.718657e-05	2.450284e-05	2.304829e-05	1.204606e-05	
7.450135	3.720725e-05	2.518711e-05	2.299924e-05	1.182536e-05	
7.451135	3.723083e-05	2.588022e-05	2.294862e-05	1.160392e-05	
7.452135	3.725726e-05	2.657995e-05	2.289615e-05	1.138222e-05	
7.453135	3.728647e-05	2.728405e-05	2.284161e-05	1.116077e-05	
7.454136	3.731839e-05	2.799028e-05	2.278473e-05	1.094008e-05	
7.455136	3.735297e-05	2.869641e-05	2.272527e-05	1.072064e-05	
7.456136	3.739012e-05	2.940019e-05	2.266298e-05	1.050296e-05	
7.457136	3.742979e-05	3.009940e-05	2.259760e-05	1.028755e-05	
7.458136	3.747191e-05	3.079180e-05	2.252889e-05	1.007490e-05	
7.459136	3.751642e-05	3.147514e-05	2.245659e-05	9.865516e-06	
7.460136	3.756325e-05	3.214719e-05	2.238047e-05	9.659904e-06	
7.461137	3.761233e-05	3.280571e-05	2.230025e-05	9.458565e-06	
7.462137	3.766360e-05	3.344847e-05	2.221571e-05	9.262002e-06	
7.463137	3.771699e-05	3.407322e-05	2.212657e-05	9.070718e-06	
7.464137	3.777244e-05	3.467773e-05	2.203261e-05	8.885216e-06	
7.465137	3.782989e-05	3.525976e-05	2.193356e-05	8.705997e-06	
7.466137	3.788925e-05	3.581707e-05	2.182917e-05	8.533566e-06	
7.467137	3.795048e-05	3.634743e-05	2.171921e-05	8.368425e-06	
7.468137	3.801351e-05	3.684860e-05	2.160340e-05	8.211076e-06	
7.469138	3.807826e-05	3.731834e-05	2.148151e-05	8.062022e-06	
7.470138	3.814467e-05	3.775441e-05	2.135329e-05	7.921766e-06	
7.471138	3.821269e-05	3.815458e-05	2.121848e-05	7.790811e-06	
7.472138	3.828223e-05	3.851660e-05	2.107684e-05	7.669660e-06	
7.473138	3.835324e-05	3.883824e-05	2.092812e-05	7.558815e-06	
7.474138	3.842566e-05	3.911727e-05	2.077205e-05	7.458779e-06	
7.475138	3.849939e-05	3.935159e-05	2.060843e-05	7.370020e-06	
7.476138	3.857424e-05	3.954124e-05	2.043735e-05	7.292533e-06	
7.477139	3.864988e-05	3.968775e-05	2.025915e-05	7.225969e-06	
7.478139	3.872600e-05	3.979271e-05	2.007417e-05	7.169975e-06	
7.479139	3.880227e-05	3.985769e-05	1.988277e-05	7.124195e-06	
7.480139	3.887838e-05	3.988426e-05	1.968528e-05	7.088274e-06	
7.481139	3.895401e-05	3.987401e-05	1.948205e-05	7.061857e-06	
7.482139	3.902885e-05	3.982852e-05	1.927343e-05	7.044590e-06	
7.483139	3.910257e-05	3.974935e-05	1.905976e-05	7.036116e-06	
7.484139	3.917486e-05	3.963809e-05	1.884138e-05	7.036083e-06	
7.485140	3.924540e-05	3.949632e-05	1.861864e-05	7.044133e-06	
7.486140	3.931386e-05	3.932561e-05	1.839189e-05	7.059913e-06	
7.487140	3.937994e-05	3.912754e-05	1.816147e-05	7.083067e-06	
7.488140	3.944331e-05	3.890369e-05	1.792772e-05	7.113240e-06	
7.489140	3.950366e-05	3.865563e-05	1.769099e-05	7.150078e-06	
7.490140	3.956067e-05	3.838494e-05	1.745162e-05	7.193226e-06	
7.491140	3.961401e-05	3.809321e-05	1.720997e-05	7.242328e-06	
7.492141	3.966338e-05	3.778200e-05	1.696637e-05	7.297029e-06	
7.493141	3.970845e-05	3.745289e-05	1.672116e-05	7.356975e-06	
7.494141	3.974890e-05	3.710747e-05	1.647471e-05	7.421811e-06	
7.495141	3.978443e-05	3.674731e-05	1.622734e-05	7.491181e-06	
7.496141	3.981470e-05	3.637398e-05	1.597940e-05	7.564731e-06	
7.497141	3.983940e-05	3.598906e-05	1.573124e-05	7.642106e-06	
7.498141	3.985821e-05	3.559414e-05	1.548320e-05	7.722950e-06	
7.499141	3.987082e-05	3.519079e-05	1.523564e-05	7.806909e-06	
7.500142	3.987690e-05	3.478058e-05	1.498888e-05	7.893628e-06	
7.501142	3.987615e-05	3.436509e-05	1.474329e-05	7.982751e-06	
7.502142	3.986823e-05	3.394591e-05	1.449919e-05	8.073924e-06	
7.503142	3.985283e-05	3.352460e-05	1.425694e-05	8.166793e-06	
7.504142	3.982964e-05	3.310276e-05	1.401689e-05	8.261001e-06	
7.505142	3.979833e-05	3.268194e-05	1.377937e-05	8.356193e-06	
7.506142	3.975859e-05	3.226373e-05	1.354474e-05	8.452016e-06	
7.507142	3.971010e-05	3.184971e-05	1.331333e-05	8.548114e-06	
7.508143	3.965254e-05	3.144146e-05	1.308549e-05	8.644132e-06	
7.509143	3.958560e-05	3.104055e-05	1.286157e-05	8.739715e-06	
7.510143	3.950894e-05	3.064856e-05	1.264191e-05	8.834507e-06	
7.511143	3.942227e-05	3.026706e-05	1.242686e-05	8.928155e-06	
7.512143	3.932525e-05	2.989764e-05	1.221676e-05	9.020303e-06	
7.513143	3.921757e-05	2.954188e-05	1.201196e-05	9.110596e-06	
7.514143	3.909892e-05	2.920134e-05	1.181279e-05	9.198680e-06	
7.515144	3.896897e-05	2.887761e-05	1.161961e-05	9.284198e-06	
7.516144	3.882740e-05	2.857226e-05	1.143277e-05	9.366797e-06	
7.517144	3.867390e-05	2.828688e-05	1.125259e-05	9.446120e-06	
7.518144	3.850815e-05	2.802303e-05	1.107944e-05	9.521815e-06	
7.519144	3.832984e-05	2.778230e-05	1.091366e-05	9.593524e-06	
7.520144	3.813863e-05	2.756627e-05	1.075558e-05	9.660894e-06	
7.521144	3.793422e-05	2.737650e-05	1.060556e-05	9.723569e-06	
7.522144	3.771629e-05	2.721459e-05	1.046394e-05	9.781194e-06	
7.523145	3.748452e-05	2.708210e-05	1.033106e-05	9.833415e-06	
7.524145	3.723858e-05	2.698061e-05	1.020727e-05	9.879877e-06	
7.525145	3.697823e-05	2.691158e-05	1.009290e-05	9.920250e-06	
7.526145	3.670398e-05	2.687478e-05	9.987941e-06	9.954567e-06	
7.527145	3.641691e-05	2.686877e-05	9.892188e-06	9.983111e-06	
7.528145	3.611811e-05	2.689213e-05	9.805422e-06	1.000617e-05	
7.529145	3.580866e-05	2.694341e-05	9.727423e-06	1.002404e-05	
7.530145	3.548966e-05	2.702115e-05	9.657972e-06	1.003701e-05	
7.531146	3.516218e-05	2.712391e-05	9.596851e-06	1.004536e-05	
7.532146	3.482732e-05	2.725025e-05	9.543841e-06	1.004939e-05	
7.533146	3.448617e-05	2.739872e-05	9.498723e-06	1.004938e-05	
7.534146	3.413981e-05	2.756787e-05	9.461278e-06	1.004564e-05	
7.535146	3.378934e-05	2.775626e-05	9.431287e-06	1.003844e-05	
7.536146	3.343583e-05	2.796245e-05	9.408532e-06	1.002807e-05	
7.537146	3.308038e-05	2.818499e-05	9.392794e-06	1.001484e-05	
7.538147	3.272408e-05	2.842243e-05	9.383854e-06	9.999018e-06	
7.539147	3.236800e-05	2.867332e-05	9.381493e-06	9.980905e-06	
7.540147	3.201325e-05	2.893622e-05	9.385493e-06	9.960788e-06	
7.541147	3.166091e-05	2.920969e-05	9.395634e-06	9.938958e-06	
7.542147	3.131206e-05	2.949228e-05	9.411697e-06	9.915704e-06	
7.543147	3.096780e-05	2.978255e-05	9.433465e-06	9.891317e-06	
7.544147	3.062921e-05	3.007904e-05	9.460718e-06	9.866086e-06	
7.545147	3.029737e-05	3.038031e-05	9.493238e-06	9.840301e-06	
7.546148	2.997339e-05	3.068492e-05	9.530804e-06	9.814252e-06	
7.547148	2.965834e-05	3.099142e-05	9.573200e-06	9.788229e-06	
7.548148	2.935331e-05	3.129836e-05	9.620206e-06	9.762523e-06	
7.549148	2.905940e-05	3.160430e-05	9.671602e-06	9.737422e-06	
7.550148	2.877768e-05	3.190780e-05	9.727171e-06	9.713217e-06	
7.551148	2.850925e-05	3.220741e-05	9.786694e-06	9.690198e-06	
7.552148	2.825519e-05	3.250167e-05	9.849951e-06	9.668655e-06	
7.553148	2.801660e-05	3.278916e-05	9.916724e-06	9.648878e-06	
7.554149	2.779455e-05	3.306841e-05	9.986795e-06	9.631156e-06	
7.555149	2.759015e-05	3.333799e-05	1.005994e-05	9.615780e-06	
7.556149	2.740446e-05	3.359644e-05	1.013595e-05	9.603039e-06	
7.557149	2.723859e-05	3.384234e-05	1.021460e-05	9.593224e-06	
7.558149	2.709363e-05	3.407421e-05	1.029567e-05	9.586625e-06	
7.559149	2.697065e-05	3.429063e-05	1.037894e-05	9.583530e-06	
7.560149	2.687074e-05	3.449015e-05	1.046420e-05	9.584231e-06	
7.561149	2.679501e-05	3.467132e-05	1.055123e-05	9.589018e-06	
7.562150	2.674452e-05	3.483269e-05	1.063980e-05	9.598179e-06	
7.563150	2.672037e-05	3.497282e-05	1.072969e-05	9.612006e-06	
7.564150	2.672366e-05	3.509026e-05	1.082070e-05	9.630788e-06	
7.565150	2.675545e-05	3.518357e-05	1.091260e-05	9.654814e-06	
7.566150	2.681685e-05	3.525131e-05	1.100517e-05	9.684376e-06	
7.567150	2.690895e-05	3.529202e-05	1.109819e-05	9.719762e-06	
7.568150	2.703282e-05	3.530426e-05	1.119144e-05	9.761264e-06	
7.569151	2.718956e-05	3.528658e-05	1.128472e-05	9.809170e-06	
7.570151	2.738025e-05	3.523754e-05	1.137778e-05	9.863771e-06	
7.571151	2.760598e-05	3.515570e-05	1.147043e-05	9.925356e-06	
7.572151	2.786785e-05	3.503960e-05	1.156243e-05	9.994216e-06	
7.573151	2.816693e-05	3.488781e-05	1.165357e-05	1.007064e-05	
7.574151	2.850432e-05	3.469887e-05	1.174363e-05	1.015492e-05	
7.575151	2.888098e-05	3.447148e-05	1.183241e-05	1.024731e-05	
7.576151	2.929620e-05	3.420609e-05	1.191974e-05	1.034768e-05	
7.577152	2.974814e-05	3.390438e-05	1.200556e-05	1.045560e-05	
7.578152	3.023493e-05	3.356808e-05	1.208976e-05	1.057065e-05	
7.579152	3.075469e-05	3.319889e-05	1.217226e-05	1.069241e-05	
7.580152	3.130553e-05	3.279851e-05	1.225296e-05	1.082045e-05	
7.581152	3.188560e-05	3.236867e-05	1.233179e-05	1.095435e-05	
7.582152	3.249301e-05	3.191107e-05	1.240865e-05	1.109369e-05	
7.583152	3.312590e-05	3.142742e-05	1.248344e-05	1.123803e-05	
7.584152	3.378237e-05	3.091944e-05	1.255608e-05	1.138696e-05	
7.585153	3.446057e-05	3.038883e-05	1.262649e-05	1.154006e-05	
7.586153	3.515861e-05	2.983731e-05	1.269457e-05	1.169689e-05	
7.587153	3.587463e-05	2.926659e-05	1.276023e-05	1.185704e-05	
7.588153	3.660674e-05	2.867837e-05	1.282338e-05	1.202007e-05	
7.589153	3.735307e-05	2.807437e-05	1.288393e-05	1.218558e-05	
7.590153	3.811175e-05	2.745630e-05	1.294180e-05	1.235312e-05	
7.591153	3.888090e-05	2.682588e-05	1.299689e-05	1.252228e-05	
7.592154	3.965865e-05	2.618480e-05	1.304912e-05	1.269264e-05	
7.593154	4.044312e-05	2.553479e-05	1.309839e-05	1.286376e-05	
7.594154	4.123244e-05	2.487755e-05	1.314462e-05	1.303523e-05	
7.595154	4.202473e-05	2.421479e-05	1.318771e-05	1.320662e-05	
7.596154	4.281812e-05	2.354823e-05	1.322758e-05	1.337751e-05	
7.597154	4.361073e-05	2.287957e-05	1.326414e-05	1.354747e-05	
7.598154	4.440069e-05	2.221053e-05	1.329730e-05	1.371609e-05	
7.599154	4.518613e-05	2.154282e-05	1.332696e-05	1.388292e-05	
7.600155	4.596516e-05	2.087815e-05	1.335305e-05	1.404756e-05	
7.601155	4.673592e-05	2.021823e-05	1.337546e-05	1.420957e-05	
7.602155	4.749653e-05	1.956477e-05	1.339412e-05	1.436854e-05	
7.603155	4.824512e-05	1.891948e-05	1.340892e-05	1.452403e-05	
7.604155	4.897980e-05	1.828407e-05	1.341979e-05	1.467563e-05	
7.605155	4.969872e-05	1.766026e-05	1.342663e-05	1.482291e-05	
7.606155	5.039998e-05	1.704975e-05	1.342935e-05	1.496545e-05	
7.607155	5.108172e-05	1.645426e-05	1.342786e-05	1.510281e-05	
7.608156	5.174206e-05	1.587549e-05	1.342208e-05	1.523459e-05	
7.609156	5.237913e-05	1.531516e-05	1.341191e-05	1.536035e-05	
7.610156	5.299105e-05	1.477497e-05	1.339727e-05	1.547967e-05	
7.611156	5.357594e-05	1.425665e-05	1.337806e-05	1.559213e-05	
7.612156	5.413194e-05	1.376189e-05	1.335419e-05	1.569729e-05	
7.613156	5.465717e-05	1.329242e-05	1.332559e-05	1.579475e-05	
7.614156	5.514975e-05	1.284994e-05	1.329215e-05	1.588407e-05	
7.615157	5.560781e-05	1.243616e-05	1.325378e-05	1.596482e-05	
7.616157	5.602947e-05	1.205279e-05	1.321041e-05	1.603660e-05	
7.617157	5.641287e-05	1.170155e-05	1.316193e-05	1.609896e-05	
7.618157	5.675611e-05	1.138414e-05	1.310827e-05	1.615149e-05	
7.619157	5.705734e-05	1.110228e-05	1.304932e-05	1.619377e-05	
7.620157	5.731467e-05	1.085768e-05	1.298500e-05	1.622536e-05	
7.621157	5.752623e-05	1.065204e-05	1.291522e-05	1.624585e-05	
7.622157	5.769015e-05	1.048708e-05	1.283990e-05	1.625481e-05	
7.623158	5.780455e-05	1.036452e-05	1.275893e-05	1.625181e-05	
7.624158	5.786755e-05	1.028605e-05	1.267224e-05	1.623644e-05	
7.625158	5.787745e-05	1.025325e-05	1.257975e-05	1.620831e-05	
7.626158	5.783456e-05	1.026580e-05	1.248157e-05	1.616761e-05	
7.627158	5.774060e-05	1.032210e-05	1.237794e-05	1.611491e-05	
7.628158	5.759733e-05	1.042054e-05	1.226911e-05	1.605080e-05	
7.629158	5.740649e-05	1.055949e-05	1.215533e-05	1.597584e-05	
7.630158	5.716981e-05	1.073733e-05	1.203683e-05	1.589063e-05	
7.631159	5.688906e-05	1.095245e-05	1.191387e-05	1.579573e-05	
7.632159	5.656598e-05	1.120321e-05	1.178668e-05	1.569174e-05	
7.633159	5.620230e-05	1.148800e-05	1.165552e-05	1.557924e-05	
7.634159	5.579979e-05	1.180520e-05	1.152063e-05	1.545879e-05	
7.635159	5.536018e-05	1.215319e-05	1.138225e-05	1.533099e-05	
7.636159	5.488522e-05	1.253034e-05	1.124063e-05	1.519641e-05	
7.637159	5.437666e-05	1.293504e-05	1.109601e-05	1.505563e-05	
7.638160	5.383624e-05	1.336566e-05	1.094864e-05	1.490924e-05	
7.639160	5.326571e-05	1.382058e-05	1.079877e-05	1.475781e-05	
7.640160	5.266681e-05	1.429818e-05	1.064663e-05	1.460192e-05	
7.641160	5.204130e-05	1.479684e-05	1.049248e-05	1.444216e-05	
7.642160	5.139092e-05	1.531494e-05	1.033655e-05	1.427910e-05	
7.643160	5.071741e-05	1.585085e-05	1.017910e-05	1.411333e-05	
7.644160	5.002252e-05	1.640297e-05	1.002037e-05	1.394542e-05	
7.645160	4.930799e-05	1.696965e-05	9.860597e-06	1.377595e-05	
7.646161	4.857558e-05	1.754930e-05	9.700034e-06	1.360551e-05	
7.647161	4.782703e-05	1.814027e-05	9.538925e-06	1.343467e-05	
7.648161	4.706409e-05	1.874096e-05	9.377514e-06	1.326402e-05	
7.649161	4.628850e-05	1.934973e-05	9.216046e-06	1.309413e-05	
7.650161	4.550200e-05	1.996498e-05	9.054765e-06	1.292559e-05	
7.651161	4.470635e-05	2.058507e-05	8.893918e-06	1.275897e-05	
7.652161	4.390329e-05	2.120840e-05	8.733749e-06	1.259486e-05	
7.653161	4.309456e-05	2.183333e-05	8.574502e-06	1.243383e-05	
7.654162	4.228192e-05	2.245824e-05	8.416423e-06	1.227647e-05	
7.655162	4.146711e-05	2.308152e-05	8.259757e-06	1.212336e-05	
7.656162	4.065187e-05	2.370153e-05	8.104749e-06	1.197507e-05	
7.657162	3.983795e-05	2.431668e-05	7.951644e-06	1.183219e-05	
7.658162	3.902711e-05	2.492532e-05	7.800686e-06	1.169529e-05	
7.659162	3.822107e-05	2.552584e-05	7.652121e-06	1.156497e-05	
7.660162	3.742160e-05	2.611662e-05	7.506194e-06	1.144178e-05	
7.661162	3.663043e-05	2.669603e-05	7.363149e-06	1.132633e-05	
7.662163	3.584931e-05	2.726247e-05	7.223231e-06	1.121918e-05	
7.663163	3.507999e-05	2.781429e-05	7.086686e-06	1.112092e-05	
7.664163	3.432422e-05	2.834989e-05	6.953759e-06	1.103213e-05	
7.665163	3.358374e-05	2.886765e-05	6.824694e-06	1.095338e-05	
7.666163	3.286030e-05	2.936593e-05	6.699736e-06	1.088527e-05	
7.667163	3.215564e-05	2.984313e-05	6.579131e-06	1.082836e-05	
7.668163	3.147151e-05	3.029761e-05	6.463123e-06	1.078324e-05	
7.669164	3.080965e-05	3.072776e-05	6.351958e-06	1.075048e-05	
7.670164	3.017182e-05	3.113196e-05	6.245879e-06	1.073068e-05	
7.671164	2.955975e-05	3.150859e-05	6.145133e-06	1.072441e-05	
7.672164	2.897520e-05	3.185602e-05	6.049964e-06	1.073224e-05	
7.673164	2.841992e-05	3.217263e-05	5.960617e-06	1.075476e-05	
7.674164	2.789563e-05	3.245681e-05	5.877337e-06	1.079255e-05	
7.675164	2.740399e-05	3.270704e-05	5.800350e-06	1.084613e-05	
7.676164	2.694525e-05	3.292331e-05	5.729645e-06	1.091528e-05	
7.677165	2.651874e-05	3.310654e-05	5.665051e-06	1.099925e-05	
7.678165	2.612376e-05	3.325772e-05	5.606395e-06	1.109732e-05	
7.679165	2.575963e-05	3.337782e-05	5.553504e-06	1.120875e-05	
7.680165	2.542566e-05	3.346780e-05	5.506204e-06	1.133280e-05	
7.681165	2.512116e-05	3.352864e-05	5.464322e-06	1.146873e-05	
7.682165	2.484545e-05	3.356130e-05	5.427684e-06	1.161580e-05	
7.683165	2.459782e-05	3.356675e-05	5.396117e-06	1.177327e-05	
7.684165	2.437761e-05	3.354597e-05	5.369447e-06	1.194041e-05	
7.685166	2.418411e-05	3.349992e-05	5.347502e-06	1.211648e-05	
7.686166	2.401663e-05	3.342957e-05	5.330107e-06	1.230074e-05	
7.687166	2.387450e-05	3.333589e-05	5.317090e-06	1.249245e-05	
7.688166	2.375701e-05	3.321986e-05	5.308277e-06	1.269087e-05	
7.689166	2.366349e-05	3.308244e-05	5.303494e-06	1.289527e-05	
7.690166	2.359324e-05	3.292460e-05	5.302568e-06	1.310490e-05	
7.691166	2.354557e-05	3.274732e-05	5.305325e-06	1.331903e-05	
7.692167	2.351979e-05	3.255155e-05	5.311593e-06	1.353693e-05	
7.693167	2.351523e-05	3.233827e-05	5.321198e-06	1.375784e-05	
7.694167	2.353118e-05	3.210846e-05	5.333966e-06	1.398104e-05	
7.695167	2.356695e-05	3.186307e-05	5.349725e-06	1.420579e-05	
7.696167	2.362187e-05	3.160309e-05	5.368299e-06	1.443134e-05	
7.697167	2.369524e-05	3.132947e-05	5.389518e-06	1.465696e-05	
7.698167	2.378637e-05	3.104319e-05	5.413205e-06	1.488191e-05	
7.699167	2.389457e-05	3.074522e-05	5.439190e-06	1.510546e-05	
7.700168	2.401916e-05	3.043653e-05	5.467297e-06	1.532686e-05	
7.701168	2.415944e-05	3.011809e-05	5.497354e-06	1.554537e-05	
7.702168	2.431473e-05	2.979087e-05	5.529186e-06	1.576027e-05	
7.703168	2.448434e-05	2.945583e-05	5.562622e-06	1.597080e-05	
7.704168	2.466758e-05	2.911395e-05	5.597487e-06	1.617624e-05	
7.705168	2.486375e-05	2.876620e-05	5.633608e-06	1.637584e-05	
7.706168	2.507218e-05	2.841355e-05	5.670811e-06	1.656886e-05	
7.707168	2.529218e-05	2.805696e-05	5.708924e-06	1.675458e-05	
7.708169	2.552304e-05	2.769741e-05	5.747772e-06	1.693224e-05	
7.709169	2.576409e-05	2.733586e-05	5.787183e-06	1.710111e-05	
7.710169	2.601464e-05	2.697329e-05	5.826982e-06	1.726045e-05	
7.711169	2.627400e-05	2.661066e-05	5.866997e-06	1.740953e-05	
7.712169	2.654147e-05	2.624895e-05	5.907054e-06	1.754761e-05	
7.713169	2.681638e-05	2.588912e-05	5.946979e-06	1.767394e-05	
7.714169	2.709803e-05	2.553215e-05	5.986600e-06	1.778779e-05	
7.715170	2.738573e-05	2.517900e-05	6.025743e-06	1.788843e-05	
7.716170	2.767879e-05	2.483064e-05	6.064234e-06	1.797510e-05	
7.717170	2.797653e-05	2.448805e-05	6.101900e-06	1.804709e-05	
7.718170	2.827825e-05	2.415219e-05	6.138567e-06	1.810364e-05	
7.719170	2.858328e-05	2.382404e-05	6.174063e-06	1.814401e-05	
7.720170	2.889091e-05	2.350455e-05	6.208214e-06	1.816748e-05	
7.721170	2.920046e-05	2.319471e-05	6.240845e-06	1.817330e-05	
7.722170	2.951124e-05	2.289548e-05	6.271785e-06	1.816074e-05	
7.723171	2.982257e-05	2.260783e-05	6.300860e-06	1.812905e-05	
7.724171	3.013375e-05	2.233273e-05	6.327895e-06	1.807749e-05	
7.725171	3.044411e-05	2.207109e-05	6.352729e-06	1.800542e-05	
7.726171	3.075323e-05	2.182311e-05	6.375324e-06	1.791321e-05	
7.727171	3.106084e-05	2.158850e-05	6.395726e-06	1.780190e-05	
7.728171	3.136668e-05	2.136697e-05	6.413984e-06	1.767256e-05	
7.729171	3.167047e-05	2.115823e-05	6.430144e-06	1.752624e-05	
7.730171	3.197196e-05	2.096199e-05	6.444255e-06	1.736401e-05	
7.731172	3.227088e-05	2.077795e-05	6.456365e-06	1.718693e-05	
7.732172	3.256696e-05	2.060584e-05	6.466521e-06	1.699606e-05	
7.733172	3.285994e-05	2.044535e-05	6.474770e-06	1.679246e-05	
7.734172	3.314955e-05	2.029621e-05	6.481161e-06	1.657718e-05	
7.735172	3.343553e-05	2.015810e-05	6.485742e-06	1.635130e-05	
7.736172	3.371762e-05	2.003076e-05	6.488560e-06	1.611587e-05	
7.737172	3.399554e-05	1.991387e-05	6.489662e-06	1.587195e-05	
7.738172	3.426904e-05	1.980717e-05	6.489098e-06	1.562061e-05	
7.739173	3.453784e-05	1.971034e-05	6.486913e-06	1.536290e-05	
7.740173	3.480169e-05	1.962311e-05	6.483157e-06	1.509989e-05	
7.741173	3.506032e-05	1.954518e-05	6.477877e-06	1.483263e-05	
7.742173	3.531345e-05	1.947627e-05	6.471120e-06	1.456219e-05	
7.743173	3.556084e-05	1.941607e-05	6.462935e-06	1.428963e-05	
7.744173	3.580221e-05	1.936430e-05	6.453369e-06	1.401601e-05	
7.745173	3.603729e-05	1.932068e-05	6.442469e-06	1.374238e-05	
7.746174	3.626583e-05	1.928490e-05	6.430285e-06	1.346982e-05	
7.747174	3.648756e-05	1.925669e-05	6.416863e-06	1.319938e-05	
7.748174	3.670220e-05	1.923574e-05	6.402250e-06	1.293212e-05	
7.749174	3.690950e-05	1.922176e-05	6.386496e-06	1.266911e-05	
7.750174	3.710920e-05	1.921448e-05	6.369648e-06	1.241139e-05	
7.751174	3.730102e-05	1.921359e-05	6.351752e-06	1.216005e-05	
7.752174	3.748470e-05	1.921881e-05	6.332858e-06	1.191613e-05	
7.753174	3.765998e-05	1.922984e-05	6.313013e-06	1.168069e-05	
7.754175	3.782659e-05	1.924639e-05	6.292264e-06	1.145481e-05	
7.755175	3.798427e-05	1.926818e-05	6.270660e-06	1.123953e-05	
7.756175	3.813275e-05	1.929491e-05	6.248248e-06	1.103592e-05	
7.757175	3.827176e-05	1.932629e-05	6.225075e-06	1.084504e-05	
7.758175	3.840105e-05	1.936204e-05	6.201190e-06	1.066795e-05	
7.759175	3.852034e-05	1.940185e-05	6.176641e-06	1.050571e-05	
7.760175	3.862937e-05	1.944545e-05	6.151475e-06	1.035939e-05	
7.761175	3.872787e-05	1.949253e-05	6.125739e-06	1.023004e-05	
7.762176	3.881559e-05	1.954282e-05	6.099482e-06	1.011872e-05	
7.763176	3.889225e-05	1.959601e-05	6.072752e-06	1.002650e-05	
7.764176	3.895759e-05	1.965182e-05	6.045595e-06	9.954436e-06	
7.765176	3.901135e-05	1.970995e-05	6.018061e-06	9.903588e-06	
7.766176	3.905326e-05	1.977013e-05	5.990195e-06	9.875017e-06	
7.767176	3.908305e-05	1.983204e-05	5.962048e-06	9.869784e-06	
7.768176	3.910046e-05	1.989542e-05	5.933665e-06	9.888951e-06	
7.769177	3.910522e-05	1.995996e-05	5.905095e-06	9.933579e-06	
7.770177	3.909708e-05	2.002537e-05	5.876386e-06	1.000473e-05	
7.771177	3.907576e-05	2.009136e-05	5.847585e-06	1.010346e-05	
7.772177	3.904099e-05	2.015765e-05	5.818740e-06	1.023083e-05	
7.773177	3.899253e-05	2.022394e-05	5.789899e-06	1.038791e-05	
7.774177	3.893009e-05	2.028994e-05	5.761110e-06	1.057575e-05	
7.775177	3.885346e-05	2.035536e-05	5.732419e-06	1.079530e-05	
7.776177	3.876297e-05	2.042002e-05	5.703861e-06	1.104610e-05	
7.777178	3.865929e-05	2.048377e-05	5.675466e-06	1.132681e-05	
7.778178	3.854313e-05	2.054646e-05	5.647260e-06	1.163606e-05	
7.779178	3.841515e-05	2.060795e-05	5.619273e-06	1.197248e-05	
7.780178	3.827606e-05	2.066811e-05	5.591531e-06	1.233469e-05	
7.781178	3.812654e-05	2.072679e-05	5.564063e-06	1.272133e-05	
7.782178	3.796727e-05	2.078385e-05	5.536897e-06	1.313104e-05	
7.783178	3.779894e-05	2.083915e-05	5.510061e-06	1.356243e-05	
7.784178	3.762225e-05	2.089254e-05	5.483583e-06	1.401415e-05	
7.785179	3.743788e-05	2.094389e-05	5.457490e-06	1.448483e-05	
7.786179	3.724651e-05	2.099306e-05	5.431812e-06	1.497309e-05	
7.787179	3.704884e-05	2.103989e-05	5.406575e-06	1.547757e-05	
7.788179	3.684554e-05	2.108426e-05	5.381808e-06	1.599690e-05	
7.789179	3.663732e-05	2.112602e-05	5.357538e-06	1.652971e-05	
7.790179	3.642485e-05	2.116503e-05	5.333795e-06	1.707463e-05	
7.791179	3.620883e-05	2.120114e-05	5.310605e-06	1.763029e-05	
7.792180	3.598994e-05	2.123422e-05	5.287996e-06	1.819532e-05	
7.793180	3.576887e-05	2.126412e-05	5.265998e-06	1.876837e-05	
7.794180	3.554630e-05	2.129070e-05	5.244637e-06	1.934805e-05	
7.795180	3.532293e-05	2.131383e-05	5.223942e-06	1.993299e-05	
7.796180	3.509944e-05	2.133335e-05	5.203940e-06	2.052184e-05	
7.797180	3.487652e-05	2.134913e-05	5.184660e-06	2.111321e-05	
7.798180	3.465486e-05	2.136103e-05	5.166130e-06	2.170575e-05	
7.799180	3.443514e-05	2.136890e-05	5.148377e-06	2.229808e-05	
7.800181	3.421805e-05	2.137261e-05	5.131430e-06	2.288884e-05	
7.801181	3.400429e-05	2.137201e-05	5.115316e-06	2.347665e-05	
7.802181	3.379452e-05	2.136696e-05	5.100064e-06	2.406015e-05	
7.803181	3.358946e-05	2.135731e-05	5.085702e-06	2.463797e-05	
7.804181	3.338977e-05	2.134294e-05	5.072257e-06	2.520873e-05	
7.805181	3.319616e-05	2.132369e-05	5.059757e-06	2.577108e-05	
7.806181	3.300930e-05	2.129943e-05	5.048231e-06	2.632364e-05	
7.807181	3.282989e-05	2.127000e-05	5.037707e-06	2.686504e-05	
7.808182	3.265860e-05	2.123528e-05	5.028212e-06	2.739392e-05	
7.809182	3.249614e-05	2.119512e-05	5.019774e-06	2.790890e-05	
7.810182	3.234319e-05	2.114938e-05	5.012422e-06	2.840862e-05	
7.811182	3.220043e-05	2.109792e-05	5.006183e-06	2.889171e-05	
7.812182	3.206855e-05	2.104059e-05	5.001086e-06	2.935680e-05	
7.813182	3.194824e-05	2.097726e-05	4.997158e-06	2.980252e-05	
7.814182	3.184019e-05	2.090777e-05	4.994428e-06	3.022750e-05	
7.815182	3.174508e-05	2.083200e-05	4.992922e-06	3.063038e-05	
7.816183	3.166361e-05	2.074980e-05	4.992671e-06	3.100978e-05	
7.817183	3.159646e-05	2.066103e-05	4.993700e-06	3.136434e-05	
7.818183	3.154431e-05	2.056554e-05	4.996039e-06	3.169268e-05	
7.819183	3.150786e-05	2.046320e-05	4.999715e-06	3.199345e-05	
7.820183	3.148779e-05	2.035387e-05	5.004756e-06	3.226526e-05	
7.821183	3.148479e-05	2.023739e-05	5.011191e-06	3.250676e-05	
7.822183	3.149955e-05	2.011364e-05	5.019047e-06	3.271657e-05	
7.823184	3.153275e-05	1.998247e-05	5.028352e-06	3.289332e-05	
7.824184	3.158509e-05	1.984373e-05	5.039135e-06	3.303565e-05	
7.825184	3.165716e-05	1.969732e-05	5.051418e-06	3.314231e-05	
7.826184	3.174857e-05	1.954347e-05	5.065180e-06	3.321353e-05	
7.827184	3.185830e-05	1.938262e-05	5.080366e-06	3.325047e-05	
7.828184	3.198532e-05	1.921522e-05	5.096923e-06	3.325432e-05	
7.829184	3.212858e-05	1.904173e-05	5.114797e-06	3.322624e-05	
7.830184	3.228706e-05	1.886261e-05	5.133935e-06	3.316741e-05	
7.831185	3.245972e-05	1.867829e-05	5.154283e-06	3.307902e-05	
7.832185	3.264553e-05	1.848923e-05	5.175787e-06	3.296223e-05	
7.833185	3.284344e-05	1.829589e-05	5.198394e-06	3.281823e-05	
7.834185	3.305244e-05	1.809871e-05	5.222049e-06	3.264819e-05	
7.835185	3.327147e-05	1.789815e-05	5.246699e-06	3.245329e-05	
7.836185	3.349951e-05	1.769465e-05	5.272290e-06	3.223471e-05	
7.837185	3.373553e-05	1.748867e-05	5.298769e-06	3.199363e-05	
7.838185	3.397848e-05	1.728067e-05	5.326082e-06	3.173121e-05	
7.839186	3.422733e-05	1.707109e-05	5.354175e-06	3.144865e-05	
7.840186	3.448106e-05	1.686038e-05	5.382994e-06	3.114711e-05	
7.841186	3.473862e-05	1.664899e-05	5.412486e-06	3.082778e-05	
7.842186	3.499898e-05	1.643739e-05	5.442597e-06	3.049182e-05	
7.843186	3.526110e-05	1.622601e-05	5.473273e-06	3.014043e-05	
7.844186	3.552395e-05	1.601531e-05	5.504460e-06	2.977477e-05	
7.845186	3.578650e-05	1.580575e-05	5.536106e-06	2.939602e-05	
7.846187	3.604771e-05	1.559776e-05	5.568155e-06	2.900537e-05	
7.847187	3.630655e-05	1.539181e-05	5.600555e-06	2.860398e-05	
7.848187	3.656198e-05	1.518835e-05	5.633252e-06	2.819303e-05	
7.849187	3.681297e-05	1.498782e-05	5.666192e-06	2.777371e-05	
7.850187	3.705848e-05	1.479069e-05	5.699321e-06	2.734719e-05	
7.851187	3.729748e-05	1.459739e-05	5.732585e-06	2.691464e-05	
7.852187	3.752893e-05	1.440839e-05	5.765931e-06	2.647725e-05	
7.853187	3.775180e-05	1.422413e-05	5.799305e-06	2.603619e-05	
7.854188	3.796506e-05	1.404506e-05	5.832654e-06	2.559263e-05	
7.855188	3.816766e-05	1.387165e-05	5.865923e-06	2.514776e-05	
7.856188	3.835858e-05	1.370433e-05	5.899060e-06	2.470276e-05	
7.857188	3.853678e-05	1.354356e-05	5.932009e-06	2.425879e-05	
7.858188	3.870123e-05	1.338979e-05	5.964718e-06	2.381705e-05	
7.859188	3.885089e-05	1.324347e-05	5.997133e-06	2.337869e-05	
7.860188	3.898473e-05	1.310506e-05	6.029200e-06	2.294491e-05	
7.861188	3.910170e-05	1.297501e-05	6.060865e-06	2.251688e-05	
7.862189	3.920079e-05	1.285376e-05	6.092075e-06	2.209577e-05	
7.863189	3.928095e-05	1.274177e-05	6.122776e-06	2.168277e-05	
7.864189	3.934115e-05	1.263949e-05	6.152914e-06	2.127905e-05	
7.865189	3.938035e-05	1.254737e-05	6.182435e-06	2.088579e-05	
7.866189	3.939752e-05	1.246587e-05	6.211286e-06	2.050416e-05	
7.867189	3.939162e-05	1.239543e-05	6.239414e-06	2.013535e-05	
7.868189	3.936163e-05	1.233651e-05	6.266763e-06	1.978053e-05	
7.869190	3.930650e-05	1.228956e-05	6.293282e-06	1.944087e-05	
7.870190	3.922520e-05	1.225502e-05	6.318915e-06	1.911756e-05	
7.871190	3.911670e-05	1.223336e-05	6.343609e-06	1.881177e-05	
7.872190	3.897996e-05	1.222502e-05	6.367311e-06	1.852468e-05	
7.873190	3.881395e-05	1.223046e-05	6.389967e-06	1.825746e-05	
7.874190	3.861763e-05	1.225012e-05	6.411523e-06	1.801130e-05	
7.875190	3.839010e-05	1.228439e-05	6.431929e-06	1.778727e-05	
7.876190	3.813197e-05	1.233301e-05	6.451180e-06	1.758539e-05	
7.877191	3.784478e-05	1.239529e-05	6.469299e-06	1.740496e-05	
7.878191	3.753010e-05	1.247051e-05	6.486309e-06	1.724531e-05	
7.879191	3.718949e-05	1.255798e-05	6.502234e-06	1.710576e-05	
7.880191	3.682450e-05	1.265700e-05	6.517096e-06	1.698561e-05	
7.881191	3.643671e-05	1.276687e-05	6.530918e-06	1.688420e-05	
7.882191	3.602768e-05	1.288689e-05	6.543724e-06	1.680082e-05	
7.883191	3.559896e-05	1.301636e-05	6.555538e-06	1.673479e-05	
7.884191	3.515213e-05	1.315459e-05	6.566381e-06	1.668544e-05	
7.885192	3.468873e-05	1.330086e-05	6.576278e-06	1.665207e-05	
7.886192	3.421034e-05	1.345449e-05	6.585252e-06	1.663400e-05	
7.887192	3.371852e-05	1.361477e-05	6.593325e-06	1.663055e-05	
7.888192	3.321483e-05	1.378100e-05	6.600522e-06	1.664103e-05	
7.889192	3.270083e-05	1.395249e-05	6.606864e-06	1.666476e-05	
7.890192	3.217808e-05	1.412852e-05	6.612376e-06	1.670105e-05	
7.891192	3.164815e-05	1.430841e-05	6.617081e-06	1.674922e-05	
7.892192	3.111259e-05	1.449146e-05	6.621001e-06	1.680858e-05	
7.893193	3.057298e-05	1.467695e-05	6.624161e-06	1.687845e-05	
7.894193	3.003087e-05	1.486420e-05	6.626582e-06	1.695815e-05	
7.895193	2.948783e-05	1.505251e-05	6.628289e-06	1.704698e-05	
7.896193	2.894542e-05	1.524117e-05	6.629304e-06	1.714427e-05	
7.897193	2.840519e-05	1.542948e-05	6.629651e-06	1.724933e-05	
7.898193	2.786872e-05	1.561675e-05	6.629353e-06	1.736148e-05	
7.899193	2.733756e-05	1.580227e-05	6.628433e-06	1.748002e-05	
7.900194	2.681328e-05	1.598535e-05	6.626914e-06	1.760428e-05	
7.901194	2.629744e-05	1.616528e-05	6.624820e-06	1.773358e-05	
7.902194	2.579160e-05	1.634137e-05	6.622174e-06	1.786722e-05	
7.903194	2.529733e-05	1.651291e-05	6.618998e-06	1.800452e-05	
7.904194	2.481618e-05	1.667922e-05	6.615316e-06	1.814480e-05	
7.905194	2.434972e-05	1.683957e-05	6.611152e-06	1.828737e-05	
7.906194	2.389951e-05	1.699329e-05	6.606528e-06	1.843155e-05	
7.907194	2.346712e-05	1.713966e-05	6.601468e-06	1.857665e-05	
7.908195	2.305410e-05	1.727798e-05	6.595995e-06	1.872200e-05	
7.909195	2.266202e-05	1.740757e-05	6.590132e-06	1.886689e-05	
7.910195	2.229244e-05	1.752771e-05	6.583901e-06	1.901066e-05	
7.911195	2.194693e-05	1.763771e-05	6.577328e-06	1.915261e-05	
7.912195	2.162703e-05	1.773687e-05	6.570434e-06	1.929206e-05	
7.913195	2.133433e-05	1.782448e-05	6.563242e-06	1.942833e-05	
7.914195	2.107037e-05	1.789986e-05	6.555777e-06	1.956073e-05	
7.915195	2.083673e-05	1.796229e-05	6.548061e-06	1.968857e-05	
7.916196	2.063496e-05	1.801108e-05	6.540117e-06	1.981117e-05	
7.917196	2.046663e-05	1.804553e-05	6.531969e-06	1.992786e-05	
7.918196	2.033330e-05	1.806494e-05	6.523640e-06	2.003793e-05	
7.919196	2.023653e-05	1.806862e-05	6.515152e-06	2.014071e-05	
7.920196	2.017788e-05	1.805585e-05	6.506530e-06	2.023552e-05	
7.921196	2.015892e-05	1.802594e-05	6.497796e-06	2.032166e-05	
7.922196	2.018121e-05	1.797819e-05	6.488974e-06	2.039846e-05	
7.923197	2.024631e-05	1.791190e-05	6.480086e-06	2.046523e-05	
7.924197	2.035578e-05	1.782637e-05	6.471156e-06	2.052128e-05	
7.925197	2.051100e-05	1.772098e-05	6.462208e-06	2.056599e-05	
7.926197	2.071126e-05	1.759600e-05	6.453268e-06	2.059935e-05	
7.927197	2.095459e-05	1.745220e-05	6.444364e-06	2.062178e-05	
7.928197	2.123898e-05	1.729040e-05	6.435525e-06	2.063365e-05	
7.929197	2.156244e-05	1.711141e-05	6.426781e-06	2.063537e-05	
7.930197	2.192298e-05	1.691602e-05	6.418159e-06	2.062735e-05	
7.931198	2.231858e-05	1.670504e-05	6.409689e-06	2.060996e-05	
7.932198	2.274725e-05	1.647927e-05	6.401398e-06	2.058363e-05	
7.933198	2.320701e-05	1.623953e-05	6.393315e-06	2.054873e-05	
7.934198	2.369583e-05	1.598661e-05	6.385470e-06	2.050567e-05	
7.935198	2.421173e-05	1.572131e-05	6.377891e-06	2.045486e-05	
7.936198	2.475272e-05	1.544445e-05	6.370606e-06	2.039668e-05	
7.937198	2.531678e-05	1.515683e-05	6.363644e-06	2.033153e-05	
7.938198	2.590192e-05	1.485924e-05	6.357034e-06	2.025982e-05	
7.939199	2.650615e-05	1.455250e-05	6.350804e-06	2.018194e-05	
7.940199	2.712746e-05	1.423741e-05	6.344983e-06	2.009829e-05	
7.941199	2.776386e-05	1.391477e-05	6.339599e-06	2.000927e-05	
7.942199	2.841334e-05	1.358538e-05	6.334682e-06	1.991528e-05	
7.943199	2.907392e-05	1.325006e-05	6.330260e-06	1.981670e-05	
7.944199	2.974358e-05	1.290961e-05	6.326361e-06	1.971395e-05	
7.945199	3.042034e-05	1.256482e-05	6.323014e-06	1.960742e-05	
7.946200	3.110219e-05	1.221651e-05	6.320248e-06	1.949751e-05	
7.947200	3.178714e-05	1.186548e-05	6.318092e-06	1.938462e-05	
7.948200	3.247318e-05	1.151253e-05	6.316574e-06	1.926914e-05	
7.949200	3.315833e-05	1.115846e-05	6.315722e-06	1.915148e-05	
7.950200	3.384057e-05	1.080409e-05	6.315566e-06	1.903202e-05	
7.951200	3.451791e-05	1.045021e-05	6.316133e-06	1.891118e-05	
7.952200	3.518836e-05	1.009764e-05	6.317454e-06	1.878934e-05	
7.953200	3.584990e-05	9.747163e-06	6.319555e-06	1.866691e-05	
7.954201	3.650056e-05	9.399597e-06	6.322467e-06	1.854428e-05	
7.955201	3.713832e-05	9.055744e-06	6.326216e-06	1.842186e-05	
7.956201	3.776119e-05	8.716407e-06	6.330834e-06	1.830003e-05	
7.957201	3.836718e-05	8.382391e-06	6.336347e-06	1.817921e-05	
7.958201	3.895427e-05	8.054500e-06	6.342784e-06	1.805978e-05	
7.959201	3.952048e-05	7.733538e-06	6.350174e-06	1.794214e-05	
7.960201	4.006380e-05	7.420309e-06	6.358547e-06	1.782670e-05	
7.961201	4.058224e-05	7.115619e-06	6.367929e-06	1.771385e-05	
7.962202	4.107379e-05	6.820270e-06	6.378351e-06	1.760399e-05	
7.963202	4.153647e-05	6.535067e-06	6.389840e-06	1.749752e-05	
7.964202	4.196826e-05	6.260815e-06	6.402425e-06	1.739483e-05	
7.965202	4.236718e-05	5.998317e-06	6.416136e-06	1.729633e-05	
7.966202	4.273122e-05	5.748379e-06	6.431000e-06	1.720240e-05	
7.967202	4.305839e-05	5.511803e-06	6.447046e-06	1.711346e-05	
7.968202	4.334668e-05	5.289395e-06	6.464303e-06	1.702990e-05	
7.969202	4.359410e-05	5.081959e-06	6.482799e-06	1.695211e-05	
7.970203	4.379865e-05	4.890298e-06	6.502564e-06	1.688050e-05	
7.971203	4.395834e-05	4.715217e-06	6.523625e-06	1.681546e-05	
7.972203	4.407115e-05	4.557521e-06	6.546011e-06	1.675740e-05	
7.973203	4.413510e-05	4.418013e-06	6.569752e-06	1.670670e-05	
7.974203	4.414819e-05	4.297498e-06	6.594875e-06	1.666377e-05	
7.975203	4.410861e-05	4.196710e-06	6.621404e-06	1.662897e-05	
7.976203	4.401670e-05	4.115634e-06	6.649295e-06	1.660233e-05	
7.977204	4.387410e-05	4.053802e-06	6.678466e-06	1.658367e-05	
7.978204	4.368243e-05	4.010739e-06	6.708835e-06	1.657279e-05	
7.979204	4.344335e-05	3.985970e-06	6.740319e-06	1.656950e-05	
7.980204	4.315851e-05	3.979019e-06	6.772836e-06	1.657364e-05	
7.981204	4.282954e-05	3.989413e-06	6.806301e-06	1.658500e-05	
7.982204	4.245810e-05	4.016677e-06	6.840634e-06	1.660339e-05	
7.983204	4.204583e-05	4.060335e-06	6.875750e-06	1.662865e-05	
7.984204	4.159436e-05	4.119912e-06	6.911568e-06	1.666056e-05	
7.985205	4.110536e-05	4.194935e-06	6.948005e-06	1.669896e-05	
7.986205	4.058045e-05	4.284927e-06	6.984977e-06	1.674364e-05	
7.987205	4.002130e-05	4.389415e-06	7.022402e-06	1.679444e-05	
7.988205	3.942954e-05	4.507923e-06	7.060198e-06	1.685115e-05	
7.989205	3.880681e-05	4.639976e-06	7.098282e-06	1.691359e-05	
7.990205	3.815477e-05	4.785100e-06	7.136571e-06	1.698158e-05	
7.991205	3.747505e-05	4.942819e-06	7.174982e-06	1.705493e-05	
7.992205	3.676931e-05	5.112660e-06	7.213432e-06	1.713344e-05	
7.993206	3.603918e-05	5.294146e-06	7.251840e-06	1.721695e-05	
7.994206	3.528632e-05	5.486803e-06	7.290121e-06	1.730525e-05	
7.995206	3.451236e-05	5.690157e-06	7.328194e-06	1.739816e-05	
7.996206	3.371895e-05	5.903732e-06	7.365976e-06	1.749549e-05	
7.997206	3.290774e-05	6.127054e-06	7.403384e-06	1.759707e-05	
7.998206	3.208037e-05	6.359648e-06	7.440335e-06	1.770269e-05	
7.999206	3.123849e-05	6.601038e-06	7.476746e-06	1.781218e-05	
8.000207	3.038374e-05	6.850750e-06	7.512536e-06	1.792534e-05	
8.001207	2.951777e-05	7.108310e-06	7.547620e-06	1.804200e-05	
8.002207	2.864222e-05	7.373241e-06	7.581917e-06	1.816195e-05	
8.003207	2.775873e-05	7.645071e-06	7.615344e-06	1.828503e-05	
8.004207	2.686896e-05	7.923322e-06	7.647817e-06	1.841103e-05	
8.005207	2.597454e-05	8.207522e-06	7.679255e-06	1.853978e-05	
8.006207	2.507713e-05	8.497194e-06	7.709574e-06	1.867109e-05	
8.007207	2.417836e-05	8.791865e-06	7.738692e-06	1.880476e-05	
8.008208	2.327988e-05	9.091058e-06	7.766526e-06	1.894061e-05	
8.009208	2.238334e-05	9.394300e-06	7.792993e-06	1.907847e-05	
8.010208	2.149037e-05	9.701115e-06	7.818011e-06	1.921813e-05	
8.011208	2.060264e-05	1.001103e-05	7.841497e-06	1.935941e-05	
8.012208	1.972177e-05	1.032357e-05	7.863369e-06	1.950213e-05	
8.013208	1.884942e-05	1.063825e-05	7.883542e-06	1.964610e-05	
8.014208	1.798723e-05	1.095461e-05	7.901936e-06	1.979113e-05	
8.015208	1.713685e-05	1.127217e-05	7.918466e-06	1.993703e-05	
8.016209	1.629992e-05	1.159046e-05	7.933051e-06	2.008362e-05	
8.017209	1.547808e-05	1.190899e-05	7.945607e-06	2.023072e-05	
8.018209	1.467298e-05	1.222730e-05	7.956053e-06	2.037813e-05	
8.019209	1.388627e-05	1.254491e-05	7.964304e-06	2.052566e-05	
8.020209	1.311959e-05	1.286134e-05	7.970279e-06	2.067314e-05	
8.021209	1.237458e-05	1.317612e-05	7.973894e-06	2.082037e-05	
8.022209	1.165290e-05	1.348878e-05	7.975068e-06	2.096717e-05	
8.023210	1.095617e-05	1.379884e-05	7.973717e-06	2.111336e-05	
8.024210	1.028606e-05	1.410582e-05	7.969758e-06	2.125873e-05	
8.025210	9.644083e-06	1.440927e-05	7.963119e-06	2.140312e-05	
8.026210	9.030452e-06	1.470888e-05	7.953821e-06	2.154641e-05	
8.027210	8.444615e-06	1.500444e-05	7.941946e-06	2.168853e-05	
8.028210	7.886008e-06	1.529574e-05	7.927574e-06	2.182941e-05	
8.029210	7.354066e-06	1.558256e-05	7.910785e-06	2.196898e-05	
8.030210	6.848222e-06	1.586470e-05	7.891662e-06	2.210717e-05	
8.031211	6.367911e-06	1.614194e-05	7.870284e-06	2.224391e-05	
8.032211	5.912569e-06	1.641408e-05	7.846734e-06	2.237912e-05	
8.033211	5.481630e-06	1.668089e-05	7.821091e-06	2.251274e-05	
8.034211	5.074529e-06	1.694218e-05	7.793437e-06	2.264470e-05	
8.035211	4.690701e-06	1.719773e-05	7.763853e-06	2.277492e-05	
8.036211	4.329579e-06	1.744733e-05	7.732420e-06	2.290334e-05	
8.037211	3.990600e-06	1.769077e-05	7.699218e-06	2.302989e-05	
8.038211	3.673197e-06	1.792784e-05	7.664328e-06	2.315448e-05	
8.039212	3.376806e-06	1.815832e-05	7.627833e-06	2.327706e-05	
8.040212	3.100861e-06	1.838201e-05	7.589812e-06	2.339755e-05	
8.041212	2.844796e-06	1.859869e-05	7.550346e-06	2.351589e-05	
8.042212	2.608047e-06	1.880815e-05	7.509517e-06	2.363199e-05	
8.043212	2.390049e-06	1.901019e-05	7.467405e-06	2.374580e-05	
8.044212	2.190235e-06	1.920459e-05	7.424091e-06	2.385723e-05	
8.045212	2.008042e-06	1.939114e-05	7.379657e-06	2.396623e-05	
8.046212	1.842902e-06	1.956962e-05	7.334183e-06	2.407271e-05	
8.047213	1.694252e-06	1.973984e-05	7.287750e-06	2.417661e-05	
8.048213	1.561526e-06	1.990157e-05	7.240439e-06	2.427786e-05	
8.049213	1.444159e-06	2.005461e-05	7.192331e-06	2.437639e-05	
8.050213	1.341585e-06	2.019874e-05	7.143508e-06	2.447212e-05	
8.051213	1.253239e-06	2.033376e-05	7.094049e-06	2.456499e-05	
8.052213	1.178555e-06	2.045945e-05	7.044036e-06	2.465492e-05	
8.053213	1.116970e-06	2.057561e-05	6.993551e-06	2.474185e-05	
8.054214	1.067916e-06	2.068201e-05	6.942673e-06	2.482570e-05	
8.055214	1.030830e-06	2.077846e-05	6.891483e-06	2.490640e-05	
8.056214	1.005145e-06	2.086473e-05	6.840064e-06	2.498388e-05	
8.057214	9.902970e-07	2.094062e-05	6.788496e-06	2.505808e-05	
8.058214	9.857198e-07	2.100592e-05	6.736859e-06	2.512892e-05	
8.059214	9.908486e-07	2.106041e-05	6.685234e-06	2.519633e-05	
8.060214	1.005118e-06	2.110389e-05	6.633703e-06	2.526024e-05	
8.061214	1.027963e-06	2.113614e-05	6.582347e-06	2.532057e-05	
8.062215	1.058817e-06	2.115696e-05	6.531246e-06	2.537727e-05	
8.063215	1.097117e-06	2.116613e-05	6.480482e-06	2.543025e-05	
8.064215	1.142296e-06	2.116343e-05	6.430135e-06	2.547945e-05	
8.065215	1.193789e-06	2.114867e-05	6.380287e-06	2.552480e-05	
8.066215	1.251031e-06	2.112163e-05	6.331017e-06	2.556623e-05	
8.067215	1.313457e-06	2.108209e-05	6.282408e-06	2.560365e-05	
8.068215	1.380502e-06	2.102986e-05	6.234541e-06	2.563702e-05	
8.069215	1.451599e-06	2.096470e-05	6.187495e-06	2.566625e-05	
8.070216	1.526184e-06	2.088642e-05	6.141352e-06	2.569127e-05	
8.071216	1.603692e-06	2.079481e-05	6.096194e-06	2.571201e-05	
8.072216	1.683557e-06	2.068965e-05	6.052101e-06	2.572841e-05	
8.073216	1.765214e-06	2.057073e-05	6.009153e-06	2.574039e-05	
8.074216	1.848098e-06	2.043784e-05	5.967433e-06	2.574788e-05	
8.075216	1.931673e-06	2.029081e-05	5.927016e-06	2.575081e-05	
8.076216	2.015708e-06	2.012990e-05	5.887935e-06	2.574923e-05	
8.077217	2.100148e-06	1.995560e-05	5.850197e-06	2.574319e-05	
8.078217	2.184941e-06	1.976842e-05	5.813810e-06	2.573278e-05	
8.079217	2.270036e-06	1.956887e-05	5.778779e-06	2.571808e-05	
8.080217	2.355380e-06	1.935745e-05	5.745112e-06	2.569916e-05	
8.081217	2.440923e-06	1.913466e-05	5.712814e-06	2.567610e-05	
8.082217	2.526611e-06	1.890101e-05	5.681893e-06	2.564898e-05	
8.083217	2.612393e-06	1.865700e-05	5.652356e-06	2.561788e-05	
8.084217	2.698218e-06	1.840314e-05	5.624208e-06	2.558287e-05	
8.085218	2.784032e-06	1.813993e-05	5.597458e-06	2.554403e-05	
8.086218	2.869785e-06	1.786787e-05	5.572110e-06	2.550143e-05	
8.087218	2.955424e-06	1.758748e-05	5.548173e-06	2.545517e-05	
8.088218	3.040898e-06	1.729925e-05	5.525652e-06	2.540530e-05	
8.089218	3.126154e-06	1.700369e-05	5.504555e-06	2.535191e-05	
8.090218	3.211142e-06	1.670130e-05	5.484888e-06	2.529508e-05	
8.091218	3.295808e-06	1.639260e-05	5.466658e-06	2.523489e-05	
8.092218	3.380101e-06	1.607807e-05	5.449871e-06	2.517141e-05	
8.093219	3.463969e-06	1.575823e-05	5.434535e-06	2.510471e-05	
8.094219	3.547360e-06	1.543358e-05	5.420655e-06	2.503489e-05	
8.095219	3.630223e-06	1.510463e-05	5.408239e-06	2.496201e-05	
8.096219	3.712504e-06	1.477187e-05	5.397292e-06	2.488615e-05	
8.097219	3.794154e-06	1.443582e-05	5.387823e-06	2.480738e-05	
8.098219	3.875119e-06	1.409698e-05	5.379838e-06	2.472580e-05	
8.099219	3.955348e-06	1.375586e-05	5.373342e-06	2.464147e-05	
8.100220	4.034788e-06	1.341295e-05	5.368343e-06	2.455447e-05	
8.101220	4.113389e-06	1.306876e-05	5.364848e-06	2.446487e-05	
8.102220	4.191097e-06	1.272380e-05	5.362864e-06	2.437277e-05	
8.103220	4.267862e-06	1.237856e-05	5.362396e-06	2.427823e-05	
8.104220	4.343631e-06	1.203357e-05	5.363451e-06	2.418132e-05	
8.105220	4.418352e-06	1.168931e-05	5.366038e-06	2.408214e-05	
8.106220	4.491974e-06	1.134630e-05	5.370161e-06	2.398075e-05	
8.107220	4.564444e-06	1.100504e-05	5.375827e-06	2.387723e-05	
8.108221	4.635711e-06	1.066602e-05	5.383044e-06	2.377167e-05	
8.109221	4.705723e-06	1.032977e-05	5.391818e-06	2.366413e-05	
8.110221	4.774428e-06	9.996778e-06	5.402156e-06	2.355470e-05	
8.111221	4.841773e-06	9.667552e-06	5.414064e-06	2.344344e-05	
8.112221	4.907708e-06	9.342596e-06	5.427549e-06	2.333045e-05	
8.113221	4.972180e-06	9.022414e-06	5.442618e-06	2.321580e-05	
8.114221	5.035138e-06	8.707512e-06	5.459277e-06	2.309956e-05	
8.115221	5.096528e-06	8.398394e-06	5.477533e-06	2.298181e-05	
8.116222	5.156301e-06	8.095563e-06	5.497393e-06	2.286263e-05	
8.117222	5.214403e-06	7.799525e-06	5.518864e-06	2.274210e-05	
8.118222	5.270783e-06	7.510784e-06	5.541952e-06	2.262029e-05	
8.119222	5.325388e-06	7.229844e-06	5.566663e-06	2.249729e-05	
8.120222	5.378168e-06	6.957210e-06	5.593005e-06	2.237316e-05	
8.121222	5.429070e-06	6.693385e-06	5.620984e-06	2.224799e-05	
8.122222	5.478041e-06	6.438876e-06	5.650607e-06	2.212185e-05	
8.123222	5.525032e-06	6.194185e-06	5.681880e-06	2.199482e-05	
8.124223	5.569988e-06	5.959817e-06	5.714811e-06	2.186698e-05	
8.125223	5.612865e-06	5.736233e-06	5.749399e-06	2.173841e-05	
8.126223	5.653666e-06	5.523456e-06	5.785586e-06	2.160917e-05	
8.127223	5.692427e-06	5.321257e-06	5.823277e-06	2.147934e-05	
8.128223	5.729182e-06	5.129404e-06	5.862378e-06	2.134897e-05	
8.129223	5.763968e-06	4.947665e-06	5.902795e-06	2.121814e-05	
8.130223	5.796819e-06	4.775810e-06	5.944432e-06	2.108691e-05	
8.131224	5.827771e-06	4.613606e-06	5.987197e-06	2.095535e-05	
8.132224	5.856858e-06	4.460822e-06	6.030993e-06	2.082352e-05	
8.133224	5.884117e-06	4.317226e-06	6.075727e-06	2.069149e-05	
8.134224	5.909581e-06	4.182586e-06	6.121305e-06	2.055934e-05	
8.135224	5.933287e-06	4.056671e-06	6.167631e-06	2.042712e-05	
8.136224	5.955270e-06	3.939249e-06	6.214612e-06	2.029489e-05	
8.137224	5.975564e-06	3.830089e-06	6.262153e-06	2.016274e-05	
8.138224	5.994206e-06	3.728958e-06	6.310160e-06	2.003072e-05	
8.139225	6.011229e-06	3.635625e-06	6.358538e-06	1.989890e-05	
8.140225	6.026671e-06	3.549859e-06	6.407192e-06	1.976735e-05	
8.141225	6.040565e-06	3.471428e-06	6.456029e-06	1.963614e-05	
8.142225	6.052946e-06	3.400100e-06	6.504954e-06	1.950532e-05	
8.143225	6.063851e-06	3.335644e-06	6.553872e-06	1.937497e-05	
8.144225	6.073315e-06	3.277827e-06	6.602690e-06	1.924516e-05	
8.145225	6.081372e-06	3.226419e-06	6.651312e-06	1.911595e-05	
8.146225	6.088057e-06	3.181187e-06	6.699644e-06	1.898740e-05	
8.147226	6.093407e-06	3.141900e-06	6.747592e-06	1.885959e-05	
8.148226	6.097456e-06	3.108327e-06	6.795061e-06	1.873257e-05	
8.149226	6.100239e-06	3.080235e-06	6.841957e-06	1.860643e-05	
8.150226	6.101792e-06	3.057393e-06	6.888186e-06	1.848121e-05	
8.151226	6.102150e-06	3.039569e-06	6.933652e-06	1.835700e-05	
8.152226	6.101348e-06	3.026533e-06	6.978262e-06	1.823386e-05	
8.153226	6.099422e-06	3.018051e-06	7.021922e-06	1.811184e-05	
8.154227	6.096405e-06	3.013892e-06	7.064536e-06	1.799103e-05	
8.155227	6.092335e-06	3.013826e-06	7.106010e-06	1.787148e-05	
8.156227	6.087245e-06	3.017619e-06	7.146251e-06	1.775327e-05	
8.157227	6.081172e-06	3.025041e-06	7.185163e-06	1.763645e-05	
8.158227	6.074150e-06	3.035859e-06	7.222651e-06	1.752110e-05	
8.159227	6.066215e-06	3.049843e-06	7.258623e-06	1.740729e-05	
8.160227	6.057401e-06	3.066760e-06	7.292983e-06	1.729507e-05	
8.161227	6.047745e-06	3.086379e-06	7.325636e-06	1.718452e-05	
8.162228	6.037280e-06	3.108468e-06	7.356489e-06	1.707570e-05	
8.163228	6.026044e-06	3.132796e-06	7.385446e-06	1.696868e-05	
8.164228	6.014069e-06	3.159131e-06	7.412414e-06	1.686352e-05	
8.165228	6.001393e-06	3.187240e-06	7.437298e-06	1.676030e-05	
8.166228	5.988050e-06	3.216894e-06	7.460004e-06	1.665908e-05	
8.167228	5.974075e-06	3.247859e-06	7.480437e-06	1.655992e-05	
8.168228	5.959504e-06	3.279905e-06	7.498502e-06	1.646289e-05	
8.169228	5.944372e-06	3.312799e-06	7.514106e-06	1.636806e-05	
8.170229	5.928713e-06	3.346310e-06	7.527154e-06	1.627550e-05	
8.171229	5.912564e-06	3.380207e-06	7.537551e-06	1.618527e-05	
8.172229	5.895959e-06	3.414257e-06	7.545203e-06	1.609743e-05	
8.173229	5.878934e-06	3.448229e-06	7.550016e-06	1.601206e-05	
8.174229	5.861524e-06	3.481891e-06	7.551894e-06	1.592922e-05	
8.175229	5.843763e-06	3.515027e-06	7.550759e-06	1.584898e-05	
8.176229	5.825690e-06	3.547560e-06	7.546667e-06	1.577141e-05	
8.177230	5.807340e-06	3.579496e-06	7.539752e-06	1.569657e-05	
8.178230	5.788750e-06	3.610837e-06	7.530150e-06	1.562453e-05	
8.179230	5.769958e-06	3.641591e-06	7.517997e-06	1.555537e-05	
8.180230	5.751001e-06	3.671762e-06	7.503427e-06	1.548915e-05	
8.181230	5.731915e-06	3.701355e-06	7.486577e-06	1.542594e-05	
8.182230	5.712737e-06	3.730376e-06	7.467583e-06	1.536580e-05	
8.183230	5.693505e-06	3.758828e-06	7.446578e-06	1.530882e-05	
8.184230	5.674256e-06	3.786718e-06	7.423700e-06	1.525505e-05	
8.185231	5.655026e-06	3.814051e-06	7.399083e-06	1.520457e-05	
8.186231	5.635853e-06	3.840831e-06	7.372863e-06	1.515744e-05	
8.187231	5.616773e-06	3.867064e-06	7.345176e-06	1.511373e-05	
8.188231	5.597824e-06	3.892754e-06	7.316156e-06	1.507352e-05	
8.189231	5.579042e-06	3.917908e-06	7.285941e-06	1.503687e-05	
8.190231	5.560465e-06	3.942529e-06	7.254664e-06	1.500385e-05	
8.191231	5.542129e-06	3.966624e-06	7.222461e-06	1.497452e-05	
8.192231	5.524071e-06	3.990196e-06	7.189469e-06	1.494897e-05	
8.193232	5.506329e-06	4.013252e-06	7.155822e-06	1.492725e-05	
8.194232	5.488940e-06	4.035797e-06	7.121656e-06	1.490943e-05	
8.195232	5.471940e-06	4.057834e-06	7.087106e-06	1.489559e-05	
8.196232	5.455367e-06	4.079371e-06	7.052309e-06	1.488580e-05	
8.197232	5.439256e-06	4.100410e-06	7.017399e-06	1.488011e-05	
8.198232	5.423647e-06	4.120959e-06	6.982511e-06	1.487860e-05	
8.199232	5.408575e-06	4.141021e-06	6.947783e-06	1.488135e-05	
8.200232	5.394077e-06	4.160602e-06	6.913348e-06	1.488841e-05	
8.201233	5.380191e-06	4.179708e-06	6.879343e-06	1.489986e-05	
8.202233	5.366953e-06	4.198342e-06	6.845902e-06	1.491576e-05	
8.203233	5.354401e-06	4.216510e-06	6.813163e-06	1.493619e-05	
8.204233	5.342571e-06	4.234218e-06	6.781259e-06	1.496121e-05	
8.205233	5.331500e-06	4.251470e-06	6.750326e-06	1.499090e-05	
8.206233	5.321226e-06	4.268272e-06	6.720501e-06	1.502532e-05	
8.207233	5.311785e-06	4.284628e-06	6.691917e-06	1.506453e-05	
8.208234	5.303215e-06	4.300544e-06	6.664712e-06	1.510862e-05	
8.209234	5.295552e-06	4.316024e-06	6.639021e-06	1.515764e-05	
8.210234	5.288833e-06	4.331074e-06	6.614978e-06	1.521167e-05	
8.211234	5.283096e-06	4.345700e-06	6.592719e-06	1.527077e-05	
8.212234	5.278377e-06	4.359905e-06	6.572381e-06	1.533502e-05	
8.213234	5.274714e-06	4.373695e-06	6.554098e-06	1.540449e-05	
8.214234	5.272143e-06	4.387076e-06	6.538006e-06	1.547923e-05	
8.215234	5.270701e-06	4.400051e-06	6.524240e-06	1.555932e-05	
8.216235	5.270426e-06	4.412628e-06	6.512936e-06	1.564484e-05	
8.217235	5.271354e-06	4.424809e-06	6.504230e-06	1.573584e-05	
8.218235	5.273523e-06	4.436601e-06	6.498256e-06	1.583240e-05	
8.219235	5.276969e-06	4.448009e-06	6.495151e-06	1.593459e-05	
8.220235	5.281729e-06	4.459038e-06	6.495050e-06	1.604247e-05	
8.221235	5.287840e-06	4.469692e-06	6.498088e-06	1.615611e-05	
8.222235	5.295340e-06	4.479978e-06	6.504402e-06	1.627559e-05	
8.223235	5.304265e-06	4.489899e-06	6.514125e-06	1.640097e-05	
8.224236	5.314653e-06	4.499462e-06	6.527395e-06	1.653232e-05	
8.225236	5.326532e-06	4.508672e-06	6.544326e-06	1.666967e-05	
8.226236	5.339859e-06	4.517553e-06	6.564845e-06	1.681276e-05	
8.227236	5.354548e-06	4.526135e-06	6.588776e-06	1.696111e-05	
8.228236	5.370514e-06	4.534449e-06	6.615938e-06	1.711428e-05	
8.229236	5.387672e-06	4.542527e-06	6.646155e-06	1.727180e-05	
8.230236	5.405936e-06	4.550400e-06	6.679245e-06	1.743323e-05	
8.231237	5.425220e-06	4.558099e-06	6.715032e-06	1.759811e-05	
8.232237	5.445441e-06	4.565655e-06	6.753336e-06	1.776597e-05	
8.233237	5.466511e-06	4.573099e-06	6.793979e-06	1.793636e-05	
8.234237	5.488347e-06	4.580463e-06	6.836781e-06	1.810883e-05	
8.235237	5.510861e-06	4.587777e-06	6.881564e-06	1.828292e-05	
8.236237	5.533970e-06	4.595074e-06	6.928149e-06	1.845818e-05	
8.237237	5.557587e-06	4.602383e-06	6.976357e-06	1.863414e-05	
8.238237	5.581627e-06	4.609736e-06	7.026011e-06	1.881035e-05	
8.239238	5.606005e-06	4.617164e-06	7.076930e-06	1.898635e-05	
8.240238	5.630635e-06	4.624699e-06	7.128936e-06	1.916169e-05	
8.241238	5.655433e-06	4.632372e-06	7.181851e-06	1.933591e-05	
8.242238	5.680312e-06	4.640214e-06	7.235495e-06	1.950855e-05	
8.243238	5.705187e-06	4.648255e-06	7.289691e-06	1.967916e-05	
8.244238	5.729973e-06	4.656527e-06	7.344258e-06	1.984728e-05	
8.245238	5.754585e-06	4.665062e-06	7.399019e-06	2.001245e-05	
8.246238	5.778936e-06	4.673890e-06	7.453795e-06	2.017422e-05	
8.247239	5.802942e-06	4.683043e-06	7.508406e-06	2.033213e-05	
8.248239	5.826518e-06	4.692551e-06	7.562675e-06	2.048573e-05	
8.249239	5.849577e-06	4.702447e-06	7.616422e-06	2.063455e-05	
8.250239	5.872035e-06	4.712760e-06	7.669469e-06	2.077815e-05	
8.251239	5.893806e-06	4.723523e-06	7.721636e-06	2.091606e-05	
8.252239	5.914804e-06	4.734766e-06	7.772746e-06	2.104783e-05	
8.253239	5.934945e-06	4.746521e-06	7.822619e-06	2.117300e-05	
8.254240	5.954143e-06	4.758819e-06	7.871077e-06	2.129111e-05	
8.255240	5.972312e-06	4.771690e-06	7.917941e-06	2.140172e-05	
8.256240	5.989368e-06	4.785166e-06	7.963031e-06	2.150435e-05	
8.257240	6.005224e-06	4.799279e-06	8.006171e-06	2.159856e-05	
8.258240	6.019796e-06	4.814059e-06	8.047179e-06	2.168389e-05	
8.259240	6.032998e-06	4.829538e-06	8.085879e-06	2.175989e-05	
8.260240	6.044744e-06	4.845746e-06	8.122091e-06	2.182608e-05	
8.261240	6.054949e-06	4.862716e-06	8.155636e-06	2.188203e-05	
8.262241	6.063529e-06	4.880477e-06	8.186336e-06	2.192727e-05	
8.263241	6.070396e-06	4.899062e-06	8.214012e-06	2.196135e-05	
8.264241	6.075467e-06	4.918501e-06	8.238485e-06	2.198381e-05	
8.265241	6.078655e-06	4.938825e-06	8.259576e-06	2.199419e-05	
8.266241	6.079876e-06	4.960066e-06	8.277107e-06	2.199203e-05	
8.267241	6.079043e-06	4.982255e-06	8.290899e-06	2.197689e-05	
8.268241	6.076072e-06	5.005424e-06	8.300773e-06	2.194830e-05	
8.269241	6.070877e-06	5.029602e-06	8.306550e-06	2.190581e-05	
8.270242	6.063373e-06	5.054822e-06	8.308052e-06	2.184895e-05	
8.271242	6.053474e-06	5.081114e-06	8.305100e-06	2.177728e-05	
8.272242	6.041095e-06	5.108510e-06	8.297515e-06	2.169034e-05	
8.273242	6.026150e-06	5.137041e-06	8.285119e-06	2.158767e-05	
8.274242	6.008555e-06	5.166737e-06	8.267732e-06	2.146882e-05	
8.275242	5.988237e-06	5.197624e-06	8.245199e-06	2.133339e-05	
8.276242	5.965247e-06	5.229650e-06	8.217583e-06	2.118163e-05	
8.277242	5.939704e-06	5.262728e-06	8.185067e-06	2.101413e-05	
8.278243	5.911727e-06	5.296768e-06	8.147832e-06	2.083149e-05	
8.279243	5.881437e-06	5.331680e-06	8.106062e-06	2.063430e-05	
8.280243	5.848952e-06	5.367377e-06	8.059941e-06	2.042316e-05	
8.281243	5.814391e-06	5.403768e-06	8.009650e-06	2.019865e-05	
8.282243	5.777875e-06	5.440765e-06	7.955373e-06	1.996137e-05	
8.283243	5.739521e-06	5.478277e-06	7.897293e-06	1.971192e-05	
8.284243	5.699451e-06	5.516217e-06	7.835593e-06	1.945090e-05	
8.285244	5.657782e-06	5.554494e-06	7.770456e-06	1.917888e-05	
8.286244	5.614636e-06	5.593020e-06	7.702065e-06	1.889648e-05	
8.287244	5.570130e-06	5.631706e-06	7.630602e-06	1.860428e-05	
8.288244	5.524384e-06	5.670461e-06	7.556251e-06	1.830288e-05	
8.289244	5.477518e-06	5.709198e-06	7.479195e-06	1.799287e-05	
8.290244	5.429651e-06	5.747827e-06	7.399617e-06	1.767484e-05	
8.291244	5.380902e-06	5.786258e-06	7.317699e-06	1.734939e-05	
8.292244	5.331391e-06	5.824402e-06	7.233626e-06	1.701712e-05	
8.293245	5.281237e-06	5.862171e-06	7.147579e-06	1.667862e-05	
8.294245	5.230560e-06	5.899474e-06	7.059741e-06	1.633448e-05	
8.295245	5.179479e-06	5.936224e-06	6.970296e-06	1.598529e-05	
8.296245	5.128113e-06	5.972330e-06	6.879427e-06	1.563165e-05	
8.297245	5.076581e-06	6.007704e-06	6.787317e-06	1.527416e-05	
8.298245	5.025004e-06	6.042256e-06	6.694148e-06	1.491341e-05	
8.299245	4.973499e-06	6.075897e-06	6.600104e-06	1.454999e-05	
8.300245	4.922188e-06	6.108537e-06	6.505367e-06	1.418450e-05	
8.301246	4.871189e-06	6.140089e-06	6.410121e-06	1.381753e-05	
8.302246	4.820621e-06	6.170462e-06	6.314548e-06	1.344967e-05	
8.303246	4.770605e-06	6.199567e-06	6.218832e-06	1.308152e-05	
8.304246	4.721258e-06	6.227315e-06	6.123155e-06	1.271368e-05	
8.305246	4.672701e-06	6.253617e-06	6.027701e-06	1.234673e-05	
8.306246	4.625053e-06	6.278384e-06	5.932652e-06	1.198128e-05	
8.307246	4.578434e-06	6.301526e-06	5.838192e-06	1.161791e-05	
8.308247	4.532962e-06	6.322955e-06	5.744503e-06	1.125722e-05	
8.309247	4.488758e-06	6.342580e-06	5.651769e-06	1.089980e-05	
8.310247	4.445940e-06	6.360314e-06	5.560171e-06	1.054625e-05	
8.311247	4.404628e-06	6.376066e-06	5.469895e-06	1.019717e-05	
8.312247	4.364941e-06	6.389748e-06	5.381121e-06	9.853140e-06	
8.313247	4.326999e-06	6.401270e-06	5.294034e-06	9.514762e-06	
8.314247	4.290920e-06	6.410543e-06	5.208816e-06	9.182629e-06	
8.315247	4.256826e-06	6.417479e-06	5.125651e-06	8.857334e-06	
8.316248	4.224834e-06	6.421986e-06	5.044721e-06	8.539472e-06	
8.317248	4.195064e-06	6.423978e-06	4.966208e-06	8.229637e-06	
8.318248	4.167636e-06	6.423364e-06	4.890298e-06	7.928424e-06	
8.319248	4.142668e-06	6.420055e-06	4.817171e-06	7.636425e-06	
8.320248	4.120281e-06	6.413961e-06	4.747012e-06	7.354237e-06	
8.321248	4.100594e-06	6.404995e-06	4.680002e-06	7.082451e-06	
8.322248	4.083725e-06	6.393066e-06	4.616326e-06	6.821663e-06	
8.323248	4.069795e-06	6.378086e-06	4.556166e-06	6.572467e-06	
8.324249	4.058923e-06	6.359964e-06	4.499706e-06	6.335457e-06	
8.325249	4.051215e-06	6.338629e-06	4.447109e-06	6.111167e-06	
8.326249	4.046655e-06	6.314158e-06	4.398376e-06	5.899585e-06	
8.327249	4.045161e-06	6.286707e-06	4.353417e-06	5.700406e-06	
8.328249	4.046654e-06	6.256435e-06	4.312145e-06	5.513324e-06	
8.329249	4.051051e-06	6.223499e-06	4.274468e-06	5.338029e-06	
8.330249	4.058271e-06	6.188057e-06	4.240298e-06	5.174216e-06	
8.331250	4.068232e-06	6.150268e-06	4.209546e-06	5.021577e-06	
8.332250	4.080853e-06	6.110289e-06	4.182121e-06	4.879805e-06	
8.333250	4.096052e-06	6.068278e-06	4.157934e-06	4.748592e-06	
8.334250	4.113749e-06	6.024393e-06	4.136896e-06	4.627631e-06	
8.335250	4.133861e-06	5.978792e-06	4.118917e-06	4.516615e-06	
8.336250	4.156307e-06	5.931633e-06	4.103908e-06	4.415236e-06	
8.337250	4.181005e-06	5.883074e-06	4.091779e-06	4.323187e-06	
8.338250	4.207874e-06	5.833272e-06	4.082442e-06	4.240161e-06	
8.339251	4.236834e-06	5.782386e-06	4.075805e-06	4.165850e-06	
8.340251	4.267801e-06	5.730574e-06	4.071781e-06	4.099948e-06	
8.341251	4.300695e-06	5.677993e-06	4.070278e-06	4.042146e-06	
8.342251	4.335434e-06	5.624801e-06	4.071209e-06	3.992138e-06	
8.343251	4.371937e-06	5.571157e-06	4.074484e-06	3.949615e-06	
8.344251	4.410122e-06	5.517218e-06	4.080012e-06	3.914272e-06	
